Time,Channel B
(us),(mV)

-100.10175902,-6.98263500
-100.06175902,-5.21866500
-100.02175902,-3.45469500
-99.98175902,-1.69072500
-99.94175902,0.07324442
-99.90175902,1.83721400
-99.86175902,3.60118400
-99.82175902,5.36515400
-99.78175902,7.12912400
-99.74175902,8.89309300
-99.70175902,10.65706000
-99.66175902,14.18500000
-99.62175902,14.18500000
-99.58175902,15.94897000
-99.54175902,17.71294000
-99.50175902,19.47691000
-99.46175902,21.24088000
-99.42175902,23.00485000
-99.38175902,24.76882000
-99.34175902,26.53279000
-99.30175902,28.29676000
-99.26175902,30.06684000
-99.22175902,31.83080000
-99.18175902,31.83080000
-99.14175902,35.35874000
-99.10175902,37.12271000
-99.06175902,37.12271000
-99.02175902,38.88668000
-98.98175902,40.65065000
-98.94175902,44.17860000
-98.90175902,44.17860000
-98.86175902,45.94257000
-98.82175902,49.47050000
-98.78175903,51.23447000
-98.74175903,51.23447000
-98.70175903,52.99844000
-98.66175903,54.76241000
-98.62175903,56.52638000
-98.58175903,58.29646000
-98.54175903,60.06042000
-98.50175903,61.82440000
-98.46175903,63.58836000
-98.42175903,65.35233000
-98.38175903,65.35233000
-98.34175903,67.11631000
-98.30175903,70.64425000
-98.26175903,70.64425000
-98.22175903,72.40822000
-98.18175903,74.17219000
-98.14175903,75.93616000
-98.10175903,77.70013000
-98.06175903,79.46410000
-98.02175903,79.46410000
-97.98175903,81.22807000
-97.94175903,82.99203000
-97.90175903,84.75600000
-97.86175903,86.52608000
-97.82175903,86.52608000
-97.78175903,88.29005000
-97.74175903,90.05402000
-97.70175903,91.81799000
-97.66175903,93.58195000
-97.62175903,93.58195000
-97.58175903,95.34592000
-97.54175903,97.10989000
-97.50175903,98.87386000
-97.46175903,100.63780000
-97.42175903,100.63780000
-97.38175903,102.40180000
-97.34175903,104.16580000
-97.30175903,105.92970000
-97.26175903,107.69370000
-97.22175903,107.69370000
-97.18175903,109.45770000
-97.14175903,109.45770000
-97.10175904,112.98560000
-97.06175904,112.98560000
-97.02175904,114.75570000
-96.98175904,114.75570000
-96.94175904,116.51970000
-96.90175904,116.51970000
-96.86175904,120.04760000
-96.82175904,120.04760000
-96.78175904,121.81160000
-96.74175904,121.81160000
-96.70175904,123.57550000
-96.66175904,125.33950000
-96.62175904,127.10350000
-96.58175904,127.10350000
-96.54175904,128.86740000
-96.50175904,128.86740000
-96.46175904,130.63140000
-96.42175904,132.39540000
-96.38175904,132.39540000
-96.34175904,134.15940000
-96.30175904,134.15940000
-96.26175904,135.92330000
-96.22175904,135.92330000
-96.18175904,137.68730000
-96.14175904,139.45130000
-96.10175904,141.21520000
-96.06175904,141.21520000
-96.02175904,141.21520000
-95.98175904,142.98530000
-95.94175904,142.98530000
-95.90175904,142.98530000
-95.86175904,144.74930000
-95.82175904,144.74930000
-95.78175904,146.51330000
-95.74175904,148.27720000
-95.70175904,148.27720000
-95.66175904,148.27720000
-95.62175904,150.04120000
-95.58175904,150.04120000
-95.54175904,150.04120000
-95.50175904,150.04120000
-95.46175905,151.80520000
-95.42175905,151.80520000
-95.38175905,153.56910000
-95.34175905,155.33310000
-95.30175905,155.33310000
-95.26175905,155.33310000
-95.22175905,157.09710000
-95.18175905,157.09710000
-95.14175905,157.09710000
-95.10175905,157.09710000
-95.06175905,157.09710000
-95.02175905,158.86110000
-94.98175905,160.62500000
-94.94175905,160.62500000
-94.90175905,160.62500000
-94.86175905,160.62500000
-94.82175905,160.62500000
-94.78175905,162.38900000
-94.74175905,162.38900000
-94.70175905,162.38900000
-94.66175905,162.38900000
-94.62175905,164.15300000
-94.58175905,164.15300000
-94.54175905,164.15300000
-94.50175905,164.15300000
-94.46175905,164.15300000
-94.42175905,164.15300000
-94.38175905,164.15300000
-94.34175905,164.15300000
-94.30175905,164.15300000
-94.26175905,165.91690000
-94.22175905,164.15300000
-94.18175905,164.15300000
-94.14175905,164.15300000
-94.10175905,164.15300000
-94.06175905,165.91690000
-94.02175905,165.91690000
-93.98175905,165.91690000
-93.94175905,165.91690000
-93.90175905,165.91690000
-93.86175905,165.91690000
-93.82175906,165.91690000
-93.78175906,165.91690000
-93.74175906,165.91690000
-93.70175906,165.91690000
-93.66175906,165.91690000
-93.62175906,165.91690000
-93.58175906,165.91690000
-93.54175906,165.91690000
-93.50175906,164.15300000
-93.46175906,164.15300000
-93.42175906,164.15300000
-93.38175906,164.15300000
-93.34175906,164.15300000
-93.30175906,164.15300000
-93.26175906,164.15300000
-93.22175906,164.15300000
-93.18175906,164.15300000
-93.14175906,162.38900000
-93.10175906,162.38900000
-93.06175906,162.38900000
-93.02175906,162.38900000
-92.98175906,162.38900000
-92.94175906,162.38900000
-92.90175906,160.62500000
-92.86175906,160.62500000
-92.82175906,158.86110000
-92.78175906,158.86110000
-92.74175906,160.62500000
-92.70175906,158.86110000
-92.66175906,157.09710000
-92.62175906,157.09710000
-92.58175906,157.09710000
-92.54175906,157.09710000
-92.50175906,157.09710000
-92.46175906,155.33310000
-92.42175906,155.33310000
-92.38175906,155.33310000
-92.34175906,153.56910000
-92.30175906,153.56910000
-92.26175906,151.80520000
-92.22175906,150.04120000
-92.18175907,150.04120000
-92.14175907,150.04120000
-92.10175907,150.04120000
-92.06175907,148.27720000
-92.02175907,148.27720000
-91.98175907,148.27720000
-91.94175907,146.51330000
-91.90175907,144.74930000
-91.86175907,142.98530000
-91.82175907,142.98530000
-91.78175907,142.98530000
-91.74175907,142.98530000
-91.70175907,141.21520000
-91.66175907,141.21520000
-91.62175907,139.45130000
-91.58175907,137.68730000
-91.54175907,137.68730000
-91.50175907,135.92330000
-91.46175907,135.92330000
-91.42175907,134.15940000
-91.38175907,134.15940000
-91.34175907,132.39540000
-91.30175907,132.39540000
-91.26175907,130.63140000
-91.22175907,128.86740000
-91.18175907,128.86740000
-91.14175907,127.10350000
-91.10175907,127.10350000
-91.06175907,123.57550000
-91.02175907,123.57550000
-90.98175907,121.81160000
-90.94175907,121.81160000
-90.90175907,120.04760000
-90.86175907,118.28360000
-90.82175907,116.51970000
-90.78175907,116.51970000
-90.74175907,114.75570000
-90.70175907,114.75570000
-90.66175907,112.98560000
-90.62175907,112.98560000
-90.58175907,109.45770000
-90.54175908,109.45770000
-90.50175908,107.69370000
-90.46175908,107.69370000
-90.42175908,105.92970000
-90.38175908,102.40180000
-90.34175908,102.40180000
-90.30175908,100.63780000
-90.26175908,98.87386000
-90.22175908,98.87386000
-90.18175908,97.10989000
-90.14175908,93.58195000
-90.10175908,93.58195000
-90.06175908,93.58195000
-90.02175908,91.81799000
-89.98175908,90.05402000
-89.94175908,88.29005000
-89.90175908,86.52608000
-89.86175908,86.52608000
-89.82175908,84.75600000
-89.78175908,81.22807000
-89.74175908,81.22807000
-89.70175908,79.46410000
-89.66175908,77.70013000
-89.62175908,77.70013000
-89.58175908,75.93616000
-89.54175908,74.17219000
-89.50175908,72.40822000
-89.46175908,70.64425000
-89.42175908,70.64425000
-89.38175908,67.11631000
-89.34175908,65.35233000
-89.30175908,63.58836000
-89.26175908,63.58836000
-89.22175908,60.06042000
-89.18175908,58.29646000
-89.14175908,58.29646000
-89.10175908,56.52638000
-89.06175908,54.76241000
-89.02175908,52.99844000
-88.98175908,51.23447000
-88.94175908,49.47050000
-88.90175909,47.70654000
-88.86175909,45.94257000
-88.82175909,44.17860000
-88.78175909,42.41463000
-88.74175909,40.65065000
-88.70175909,38.88668000
-88.66175909,37.12271000
-88.62175909,37.12271000
-88.58175909,35.35874000
-88.54175909,31.83080000
-88.50175909,30.06684000
-88.46175909,30.06684000
-88.42175909,28.29676000
-88.38175909,24.76882000
-88.34175909,23.00485000
-88.30175909,23.00485000
-88.26175909,21.24088000
-88.22175909,19.47691000
-88.18175909,17.71294000
-88.14175909,15.94897000
-88.10175909,14.18500000
-88.06175909,12.42103000
-88.02175909,10.65706000
-87.98175909,8.89309300
-87.94175909,7.12912400
-87.90175909,5.36515400
-87.86175909,3.60118400
-87.82175909,1.83721400
-87.78175909,1.83721400
-87.74175909,-1.69072500
-87.70175909,-3.45469500
-87.66175909,-5.21866500
-87.62175909,-6.98263500
-87.58175909,-8.74660500
-87.54175909,-10.51057000
-87.50175909,-12.27454000
-87.46175909,-14.03851000
-87.42175909,-17.56645000
-87.38175909,-19.33042000
-87.34175909,-19.33042000
-87.30175909,-21.09439000
-87.26175910,-22.85836000
-87.22175910,-24.62233000
-87.18175910,-26.39241000
-87.14175910,-28.15638000
-87.10175910,-28.15638000
-87.06175910,-31.68431000
-87.02175910,-33.44828000
-86.98175910,-35.21225000
-86.94175910,-36.97623000
-86.90175910,-38.74020000
-86.86175910,-40.50417000
-86.82175910,-40.50417000
-86.78175910,-42.26814000
-86.74175910,-45.79607000
-86.70175910,-47.56004000
-86.66175910,-47.56004000
-86.62175910,-49.32401000
-86.58175910,-51.08798000
-86.54175910,-54.62203000
-86.50175910,-54.62203000
-86.46175910,-56.38600000
-86.42175910,-59.91394000
-86.38175910,-59.91394000
-86.34175910,-61.67791000
-86.30175910,-61.67791000
-86.26175910,-65.20585000
-86.22175910,-66.96982000
-86.18175910,-68.73379000
-86.14175910,-68.73379000
-86.10175910,-70.49776000
-86.06175910,-74.02570000
-86.02175910,-75.78967000
-85.98175910,-75.78967000
-85.94175910,-77.55363000
-85.90175910,-79.31760000
-85.86175910,-81.08157000
-85.82175910,-82.85165000
-85.78175910,-84.61562000
-85.74175910,-86.37959000
-85.70175910,-86.37959000
-85.66175910,-88.14356000
-85.62175910,-89.90753000
-85.58175911,-91.67150000
-85.54175911,-93.43547000
-85.50175911,-95.19944000
-85.46175911,-96.96341000
-85.42175911,-98.72738000
-85.38175911,-98.72738000
-85.34175911,-98.72738000
-85.30175911,-102.25530000
-85.26175911,-104.01930000
-85.22175911,-105.78330000
-85.18175911,-107.54720000
-85.14175911,-107.54720000
-85.10175911,-111.08130000
-85.06175911,-111.08130000
-85.02175911,-111.08130000
-84.98175911,-112.84520000
-84.94175911,-114.60920000
-84.90175911,-116.37320000
-84.86175911,-118.13720000
-84.82175911,-119.90110000
-84.78175911,-119.90110000
-84.74175911,-121.66510000
-84.70175911,-123.42910000
-84.66175911,-125.19300000
-84.62175911,-125.19300000
-84.58175911,-126.95700000
-84.54175911,-128.72100000
-84.50175911,-130.48490000
-84.46175911,-130.48490000
-84.42175911,-132.24890000
-84.38175911,-132.24890000
-84.34175911,-134.01290000
-84.30175911,-135.77680000
-84.26175911,-135.77680000
-84.22175911,-139.31090000
-84.18175911,-139.31090000
-84.14175911,-139.31090000
-84.10175911,-141.07490000
-84.06175911,-141.07490000
-84.02175911,-144.60280000
-83.98175911,-144.60280000
-83.94175912,-146.36680000
-83.90175912,-146.36680000
-83.86175912,-148.13070000
-83.82175912,-148.13070000
-83.78175912,-148.13070000
-83.74175912,-151.65870000
-83.70175912,-151.65870000
-83.66175912,-153.42260000
-83.62175912,-153.42260000
-83.58175912,-153.42260000
-83.54175912,-155.18660000
-83.50175912,-155.18660000
-83.46175912,-155.18660000
-83.42175912,-158.71460000
-83.38175912,-158.71460000
-83.34175912,-160.47850000
-83.30175912,-160.47850000
-83.26175912,-160.47850000
-83.22175912,-162.24250000
-83.18175912,-162.24250000
-83.14175912,-164.00650000
-83.10175912,-164.00650000
-83.06175912,-165.77040000
-83.02175912,-165.77040000
-82.98175912,-167.54050000
-82.94175912,-167.54050000
-82.90175912,-167.54050000
-82.86175912,-167.54050000
-82.82175912,-167.54050000
-82.78175912,-169.30450000
-82.74175912,-169.30450000
-82.70175912,-171.06850000
-82.66175912,-171.06850000
-82.62175912,-172.83240000
-82.58175912,-172.83240000
-82.54175912,-172.83240000
-82.50175912,-174.59640000
-82.46175912,-172.83240000
-82.42175912,-174.59640000
-82.38175912,-174.59640000
-82.34175912,-174.59640000
-82.30175913,-174.59640000
-82.26175913,-176.36040000
-82.22175913,-176.36040000
-82.18175913,-176.36040000
-82.14175913,-178.12430000
-82.10175913,-176.36040000
-82.06175913,-178.12430000
-82.02175913,-178.12430000
-81.98175913,-178.12430000
-81.94175913,-178.12430000
-81.90175913,-179.88830000
-81.86175913,-178.12430000
-81.82175913,-179.88830000
-81.78175913,-179.88830000
-81.74175913,-181.65230000
-81.70175913,-179.88830000
-81.66175913,-179.88830000
-81.62175913,-179.88830000
-81.58175913,-179.88830000
-81.54175913,-181.65230000
-81.50175913,-181.65230000
-81.46175913,-181.65230000
-81.42175913,-181.65230000
-81.38175913,-181.65230000
-81.34175913,-181.65230000
-81.30175913,-181.65230000
-81.26175913,-181.65230000
-81.22175913,-181.65230000
-81.18175913,-181.65230000
-81.14175913,-179.88830000
-81.10175913,-179.88830000
-81.06175913,-181.65230000
-81.02175913,-179.88830000
-80.98175913,-181.65230000
-80.94175913,-178.12430000
-80.90175913,-178.12430000
-80.86175913,-178.12430000
-80.82175913,-178.12430000
-80.78175913,-178.12430000
-80.74175913,-178.12430000
-80.70175913,-178.12430000
-80.66175914,-178.12430000
-80.62175914,-176.36040000
-80.58175914,-176.36040000
-80.54175914,-176.36040000
-80.50175914,-176.36040000
-80.46175914,-176.36040000
-80.42175914,-174.59640000
-80.38175914,-174.59640000
-80.34175914,-174.59640000
-80.30175914,-174.59640000
-80.26175914,-174.59640000
-80.22175914,-172.83240000
-80.18175914,-172.83240000
-80.14175914,-172.83240000
-80.10175914,-172.83240000
-80.06175914,-171.06850000
-80.02175914,-169.30450000
-79.98175914,-169.30450000
-79.94175914,-169.30450000
-79.90175914,-169.30450000
-79.86175914,-167.54050000
-79.82175914,-167.54050000
-79.78175914,-167.54050000
-79.74175914,-165.77040000
-79.70175914,-165.77040000
-79.66175914,-164.00650000
-79.62175914,-164.00650000
-79.58175914,-164.00650000
-79.54175914,-162.24250000
-79.50175914,-160.47850000
-79.46175914,-160.47850000
-79.42175914,-160.47850000
-79.38175914,-160.47850000
-79.34175914,-158.71460000
-79.30175914,-156.95060000
-79.26175914,-155.18660000
-79.22175914,-155.18660000
-79.18175914,-155.18660000
-79.14175914,-153.42260000
-79.10175914,-153.42260000
-79.06175914,-153.42260000
-79.02175915,-149.89470000
-78.98175915,-149.89470000
-78.94175915,-149.89470000
-78.90175915,-148.13070000
-78.86175915,-146.36680000
-78.82175915,-146.36680000
-78.78175915,-144.60280000
-78.74175915,-144.60280000
-78.70175915,-142.83880000
-78.66175915,-141.07490000
-78.62175915,-141.07490000
-78.58175915,-139.31090000
-78.54175915,-139.31090000
-78.50175915,-137.54080000
-78.46175915,-137.54080000
-78.42175915,-134.01290000
-78.38175915,-134.01290000
-78.34175915,-134.01290000
-78.30175915,-132.24890000
-78.26175915,-130.48490000
-78.22175915,-128.72100000
-78.18175915,-128.72100000
-78.14175915,-126.95700000
-78.10175915,-125.19300000
-78.06175915,-125.19300000
-78.02175915,-123.42910000
-77.98175915,-121.66510000
-77.94175915,-119.90110000
-77.90175915,-119.90110000
-77.86175915,-118.13720000
-77.82175915,-116.37320000
-77.78175915,-114.60920000
-77.74175915,-112.84520000
-77.70175915,-111.08130000
-77.66175915,-111.08130000
-77.62175915,-109.31120000
-77.58175915,-107.54720000
-77.54175915,-105.78330000
-77.50175915,-104.01930000
-77.46175915,-104.01930000
-77.42175915,-104.01930000
-77.38175916,-100.49130000
-77.34175916,-98.72738000
-77.30175916,-96.96341000
-77.26175916,-96.96341000
-77.22175916,-95.19944000
-77.18175916,-93.43547000
-77.14175916,-91.67150000
-77.10175916,-89.90753000
-77.06175916,-89.90753000
-77.02175916,-88.14356000
-76.98175916,-84.61562000
-76.94175916,-84.61562000
-76.90175916,-82.85165000
-76.86175916,-81.08157000
-76.82175916,-79.31760000
-76.78175916,-77.55363000
-76.74175916,-75.78967000
-76.70175916,-75.78967000
-76.66175916,-74.02570000
-76.62175916,-70.49776000
-76.58175916,-68.73379000
-76.54175916,-68.73379000
-76.50175916,-66.96982000
-76.46175916,-65.20585000
-76.42175916,-63.44188000
-76.38175916,-61.67791000
-76.34175916,-59.91394000
-76.30175916,-58.14997000
-76.26175916,-56.38600000
-76.22175916,-54.62203000
-76.18175916,-52.85195000
-76.14175916,-51.08798000
-76.10175916,-49.32401000
-76.06175916,-47.56004000
-76.02175916,-47.56004000
-75.98175916,-44.03210000
-75.94175916,-42.26814000
-75.90175916,-40.50417000
-75.86175916,-40.50417000
-75.82175916,-36.97623000
-75.78175916,-35.21225000
-75.74175917,-33.44828000
-75.70175917,-33.44828000
-75.66175917,-31.68431000
-75.62175917,-29.92035000
-75.58175917,-26.39241000
-75.54175917,-26.39241000
-75.50175917,-24.62233000
-75.46175917,-21.09439000
-75.42175917,-21.09439000
-75.38175917,-19.33042000
-75.34175917,-17.56645000
-75.30175917,-14.03851000
-75.26175917,-14.03851000
-75.22175917,-12.27454000
-75.18175917,-10.51057000
-75.14175917,-6.98263500
-75.10175917,-6.98263500
-75.06175917,-5.21866500
-75.02175917,-3.45469500
-74.98175917,0.07324442
-74.94175917,1.83721400
-74.90175917,1.83721400
-74.86175917,3.60118400
-74.82175917,7.12912400
-74.78175917,7.12912400
-74.74175917,8.89309300
-74.70175917,10.65706000
-74.66175917,14.18500000
-74.62175917,14.18500000
-74.58175917,15.94897000
-74.54175917,17.71294000
-74.50175917,19.47691000
-74.46175917,21.24088000
-74.42175917,23.00485000
-74.38175917,24.76882000
-74.34175917,26.53279000
-74.30175917,28.29676000
-74.26175917,30.06684000
-74.22175917,31.83080000
-74.18175917,33.59477000
-74.14175917,35.35874000
-74.10175917,37.12271000
-74.06175918,38.88668000
-74.02175918,38.88668000
-73.98175918,40.65065000
-73.94175918,42.41463000
-73.90175918,44.17860000
-73.86175918,45.94257000
-73.82175918,49.47050000
-73.78175918,51.23447000
-73.74175918,51.23447000
-73.70175918,52.99844000
-73.66175918,54.76241000
-73.62175918,58.29646000
-73.58175918,58.29646000
-73.54175918,60.06042000
-73.50175918,61.82440000
-73.46175918,63.58836000
-73.42175918,65.35233000
-73.38175918,65.35233000
-73.34175918,67.11631000
-73.30175918,68.88028000
-73.26175918,70.64425000
-73.22175918,72.40822000
-73.18175918,74.17219000
-73.14175918,75.93616000
-73.10175918,77.70013000
-73.06175918,79.46410000
-73.02175918,79.46410000
-72.98175918,81.22807000
-72.94175918,81.22807000
-72.90175918,84.75600000
-72.86175918,86.52608000
-72.82175918,86.52608000
-72.78175918,88.29005000
-72.74175918,90.05402000
-72.70175918,91.81799000
-72.66175918,93.58195000
-72.62175918,93.58195000
-72.58175918,95.34592000
-72.54175918,97.10989000
-72.50175918,98.87386000
-72.46175918,100.63780000
-72.42175919,100.63780000
-72.38175919,102.40180000
-72.34175919,104.16580000
-72.30175919,105.92970000
-72.26175919,107.69370000
-72.22175919,107.69370000
-72.18175919,109.45770000
-72.14175919,109.45770000
-72.10175919,112.98560000
-72.06175919,114.75570000
-72.02175919,114.75570000
-71.98175919,114.75570000
-71.94175919,116.51970000
-71.90175919,118.28360000
-71.86175919,120.04760000
-71.82175919,120.04760000
-71.78175919,121.81160000
-71.74175919,121.81160000
-71.70175919,123.57550000
-71.66175919,125.33950000
-71.62175919,127.10350000
-71.58175919,127.10350000
-71.54175919,128.86740000
-71.50175919,130.63140000
-71.46175919,130.63140000
-71.42175919,130.63140000
-71.38175919,132.39540000
-71.34175919,134.15940000
-71.30175919,135.92330000
-71.26175919,135.92330000
-71.22175919,135.92330000
-71.18175919,137.68730000
-71.14175919,137.68730000
-71.10175919,139.45130000
-71.06175919,141.21520000
-71.02175919,141.21520000
-70.98175919,142.98530000
-70.94175919,142.98530000
-70.90175919,144.74930000
-70.86175919,144.74930000
-70.82175919,144.74930000
-70.78175920,146.51330000
-70.74175920,148.27720000
-70.70175920,148.27720000
-70.66175920,150.04120000
-70.62175920,150.04120000
-70.58175920,150.04120000
-70.54175920,151.80520000
-70.50175920,151.80520000
-70.46175920,151.80520000
-70.42175920,151.80520000
-70.38175920,153.56910000
-70.34175920,155.33310000
-70.30175920,155.33310000
-70.26175920,155.33310000
-70.22175920,157.09710000
-70.18175920,157.09710000
-70.14175920,157.09710000
-70.10175920,157.09710000
-70.06175920,157.09710000
-70.02175920,157.09710000
-69.98175920,158.86110000
-69.94175920,158.86110000
-69.90175920,160.62500000
-69.86175920,160.62500000
-69.82175920,160.62500000
-69.78175920,162.38900000
-69.74175920,162.38900000
-69.70175920,162.38900000
-69.66175920,162.38900000
-69.62175920,162.38900000
-69.58175920,164.15300000
-69.54175920,164.15300000
-69.50175920,164.15300000
-69.46175920,164.15300000
-69.42175920,164.15300000
