Time,Channel B
(us),(mV)

-100.09825201,-16.67836000
-100.05825201,-12.26844000
-100.01825201,-7.85851600
-99.97825201,-3.44859100
-99.93825201,0.96133300
-99.89825201,5.37125700
-99.85825201,9.78118100
-99.81825201,18.60103000
-99.77825201,23.01095000
-99.73825201,27.42088000
-99.69825201,31.83080000
-99.65825201,36.24073000
-99.61825201,40.65065000
-99.57825201,45.06058000
-99.53825201,49.47050000
-99.49825201,58.30561000
-99.45825201,58.30561000
-99.41825201,62.71553000
-99.37825201,71.53539000
-99.33825201,75.94530000
-99.29825201,75.94530000
-99.25825201,80.35523000
-99.21825201,89.17508000
-99.17825201,93.58500000
-99.13825201,97.99493000
-99.09825201,102.42010000
-99.05825201,106.83000000
-99.01825201,111.24000000
-98.97825201,111.24000000
-98.93825201,120.05980000
-98.89825201,124.46970000
-98.85825201,128.87970000
-98.81825201,133.28960000
-98.77825201,142.10940000
-98.73825201,142.10940000
-98.69825201,146.53460000
-98.65825201,155.35450000
-98.61825201,159.76440000
-98.57825201,159.76440000
-98.53825201,164.17430000
-98.49825202,168.58420000
-98.45825202,177.40410000
-98.41825202,181.81400000
-98.37825202,181.81400000
-98.33825202,186.22390000
-98.29825202,195.05900000
-98.25825202,199.46900000
-98.21825202,199.46900000
-98.17825202,203.87890000
-98.13825202,212.69870000
-98.09825202,217.10870000
-98.05825202,217.10870000
-98.01825202,221.51860000
-97.97825202,225.92850000
-97.93825202,230.33840000
-97.89825202,234.74840000
-97.85825202,234.74840000
-97.81825202,243.58350000
-97.77825202,247.99340000
-97.73825202,247.99340000
-97.69825202,252.40330000
-97.65825202,256.81320000
-97.61825202,265.63310000
-97.57825202,270.04300000
-97.53825202,270.04300000
-97.49825202,274.45290000
-97.45825202,278.86290000
-97.41825202,283.27280000
-97.37825202,287.69800000
-97.33825202,292.10790000
-97.29825202,292.10790000
-97.25825202,300.92770000
-97.21825202,305.33770000
-97.17825202,305.33770000
-97.13825202,309.74760000
-97.09825202,309.74760000
-97.05825202,318.56740000
-97.01825202,318.56740000
-96.97825202,322.97740000
-96.93825202,327.38730000
-96.89825202,331.79720000
-96.85825203,336.22240000
-96.81825203,340.63230000
-96.77825203,340.63230000
-96.73825203,345.04220000
-96.69825203,345.04220000
-96.65825203,353.86210000
-96.61825203,353.86210000
-96.57825203,358.27200000
-96.53825203,358.27200000
-96.49825203,362.68190000
-96.45825203,367.09190000
-96.41825203,371.50180000
-96.37825203,371.50180000
-96.33825203,375.91170000
-96.29825203,380.32160000
-96.25825203,380.32160000
-96.21825203,384.74680000
-96.17825203,389.15670000
-96.13825203,389.15670000
-96.09825203,393.56670000
-96.05825203,393.56670000
-96.01825203,402.38650000
-95.97825203,402.38650000
-95.93825203,402.38650000
-95.89825203,406.79640000
-95.85825203,411.20640000
-95.81825203,411.20640000
-95.77825203,411.20640000
-95.73825203,415.61630000
-95.69825203,415.61630000
-95.65825203,424.43620000
-95.61825203,424.43620000
-95.57825203,424.43620000
-95.53825203,428.86130000
-95.49825203,428.86130000
-95.45825203,428.86130000
-95.41825203,433.27130000
-95.37825203,433.27130000
-95.33825203,437.68120000
-95.29825203,442.09110000
-95.25825203,442.09110000
-95.21825204,442.09110000
-95.17825204,446.50100000
-95.13825204,446.50100000
-95.09825204,446.50100000
-95.05825204,446.50100000
-95.01825204,450.91090000
-94.97825204,450.91090000
-94.93825204,455.32090000
-94.89825204,459.73080000
-94.85825204,459.73080000
-94.81825204,459.73080000
-94.77825204,459.73080000
-94.73825204,464.14070000
-94.69825204,464.14070000
-94.65825204,464.14070000
-94.61825204,464.14070000
-94.57825204,468.55070000
-94.53825204,468.55070000
-94.49825204,468.55070000
-94.45825204,468.55070000
-94.41825204,468.55070000
-94.37825204,472.96060000
-94.33825204,472.96060000
-94.29825204,472.96060000
-94.25825204,477.38580000
-94.21825204,477.38580000
-94.17825204,477.38580000
-94.13825204,477.38580000
-94.09825204,477.38580000
-94.05825204,477.38580000
-94.01825204,477.38580000
-93.97825204,481.79570000
-93.93825204,481.79570000
-93.89825204,477.38580000
-93.85825204,481.79570000
-93.81825204,481.79570000
-93.77825204,481.79570000
-93.73825204,481.79570000
-93.69825204,481.79570000
-93.65825204,481.79570000
-93.61825204,481.79570000
-93.57825205,481.79570000
-93.53825205,481.79570000
-93.49825205,481.79570000
-93.45825205,481.79570000
-93.41825205,481.79570000
-93.37825205,481.79570000
-93.33825205,481.79570000
-93.29825205,481.79570000
-93.25825205,477.38580000
-93.21825205,477.38580000
-93.17825205,477.38580000
-93.13825205,477.38580000
-93.09825205,477.38580000
-93.05825205,477.38580000
-93.01825205,477.38580000
-92.97825205,472.96060000
-92.93825205,472.96060000
-92.89825205,468.55070000
-92.85825205,468.55070000
-92.81825205,468.55070000
-92.77825205,468.55070000
-92.73825205,464.14070000
-92.69825205,464.14070000
-92.65825205,464.14070000
-92.61825205,464.14070000
-92.57825205,464.14070000
-92.53825205,464.14070000
-92.49825205,459.73080000
-92.45825205,459.73080000
-92.41825205,459.73080000
-92.37825205,459.73080000
-92.33825205,450.91090000
-92.29825205,450.91090000
-92.25825205,450.91090000
-92.21825205,450.91090000
-92.17825205,446.50100000
-92.13825205,446.50100000
-92.09825205,446.50100000
-92.05825205,446.50100000
-92.01825205,442.09110000
-91.97825205,442.09110000
-91.93825206,437.68120000
-91.89825206,433.27130000
-91.85825206,433.27130000
-91.81825206,428.86130000
-91.77825206,428.86130000
-91.73825206,428.86130000
-91.69825206,424.43620000
-91.65825206,424.43620000
-91.61825206,424.43620000
-91.57825206,415.61630000
-91.53825206,415.61630000
-91.49825206,411.20640000
-91.45825206,411.20640000
-91.41825206,411.20640000
-91.37825206,406.79640000
-91.33825206,402.38650000
-91.29825206,402.38650000
-91.25825206,397.97660000
-91.21825206,393.56670000
-91.17825206,393.56670000
-91.13825206,393.56670000
-91.09825206,389.15670000
-91.05825206,384.74680000
-91.01825206,380.32160000
-90.97825206,375.91170000
-90.93825206,375.91170000
-90.89825206,375.91170000
-90.85825206,371.50180000
-90.81825206,367.09190000
-90.77825206,362.68190000
-90.73825206,358.27200000
-90.69825206,358.27200000
-90.65825206,358.27200000
-90.61825206,349.45220000
-90.57825206,345.04220000
-90.53825206,345.04220000
-90.49825206,340.63230000
-90.45825206,336.22240000
-90.41825206,336.22240000
-90.37825206,331.79720000
-90.33825206,322.97740000
-90.29825206,322.97740000
-90.25825207,322.97740000
-90.21825207,318.56740000
-90.17825207,309.74760000
-90.13825207,309.74760000
-90.09825207,305.33770000
-90.05825207,300.92770000
-90.01825207,296.51780000
-89.97825207,292.10790000
-89.93825207,287.69800000
-89.89825207,287.69800000
-89.85825207,283.27280000
-89.81825207,278.86290000
-89.77825207,274.45290000
-89.73825207,270.04300000
-89.69825207,265.63310000
-89.65825207,265.63310000
-89.61825207,256.81320000
-89.57825207,252.40330000
-89.53825207,247.99340000
-89.49825207,247.99340000
-89.45825207,239.15830000
-89.41825207,239.15830000
-89.37825207,234.74840000
-89.33825207,230.33840000
-89.29825207,225.92850000
-89.25825207,221.51860000
-89.21825207,217.10870000
-89.17825207,212.69870000
-89.13825207,208.28880000
-89.09825207,203.87890000
-89.05825207,199.46900000
-89.01825207,199.46900000
-88.97825207,195.05900000
-88.93825207,186.22390000
-88.89825207,181.81400000
-88.85825207,181.81400000
-88.81825207,177.40410000
-88.77825207,168.58420000
-88.73825207,164.17430000
-88.69825207,159.76440000
-88.65825207,159.76440000
-88.61825208,150.94450000
-88.57825208,146.53460000
-88.53825208,142.10940000
-88.49825208,142.10940000
-88.45825208,133.28960000
-88.41825208,128.87970000
-88.37825208,128.87970000
-88.33825208,124.46970000
-88.29825208,115.64990000
-88.25825208,111.24000000
-88.21825208,106.83000000
-88.17825208,97.99493000
-88.13825208,97.99493000
-88.09825208,93.58500000
-88.05825208,89.17508000
-88.01825208,84.76515000
-87.97825208,75.94530000
-87.93825208,75.94530000
-87.89825208,71.53539000
-87.85825208,62.71553000
-87.81825208,58.30561000
-87.77825208,58.30561000
-87.73825208,49.47050000
-87.69825208,45.06058000
-87.65825208,40.65065000
-87.61825208,36.24073000
-87.57825208,27.42088000
-87.53825208,23.01095000
-87.49825208,23.01095000
-87.45825208,18.60103000
-87.41825208,9.78118100
-87.37825208,5.37125700
-87.33825208,5.37125700
-87.29825208,0.96133300
-87.25825208,-7.85851600
-87.21825208,-12.26844000
-87.17825208,-16.67836000
-87.13825208,-21.08829000
-87.09825208,-29.90814000
-87.05825208,-29.90814000
-87.01825208,-34.31806000
-86.97825209,-43.15317000
-86.93825209,-47.56310000
-86.89825209,-51.97302000
-86.85825209,-51.97302000
-86.81825209,-60.79287000
-86.77825209,-65.20279000
-86.73825209,-65.20279000
-86.69825209,-74.02264000
-86.65825209,-78.43256000
-86.61825209,-82.84248000
-86.57825209,-87.25241000
-86.53825209,-91.67760000
-86.49825209,-100.49750000
-86.45825209,-100.49750000
-86.41825209,-104.90740000
-86.37825209,-109.31730000
-86.33825209,-118.13710000
-86.29825209,-118.13710000
-86.25825209,-122.54710000
-86.21825209,-126.95700000
-86.17825209,-131.36690000
-86.13825209,-135.79210000
-86.09825209,-140.20200000
-86.05825209,-149.02190000
-86.01825209,-153.43180000
-85.97825209,-153.43180000
-85.93825209,-157.84170000
-85.89825209,-166.66160000
-85.85825209,-171.07150000
-85.81825209,-171.07150000
-85.77825209,-175.48140000
-85.73825209,-184.31650000
-85.69825209,-188.72640000
-85.65825209,-188.72640000
-85.61825209,-197.54630000
-85.57825209,-197.54630000
-85.53825209,-206.36610000
-85.49825209,-206.36610000
-85.45825209,-210.77610000
-85.41825209,-215.18600000
-85.37825209,-219.59590000
-85.33825210,-224.00580000
-85.29825210,-228.41580000
-85.25825210,-232.84100000
-85.21825210,-237.25090000
-85.17825210,-241.66080000
-85.13825210,-246.07070000
-85.09825210,-246.07070000
-85.05825210,-254.89060000
-85.01825210,-259.30050000
-84.97825210,-263.71040000
-84.93825210,-263.71040000
-84.89825210,-268.12040000
-84.85825210,-272.53030000
-84.81825210,-276.95550000
-84.77825210,-276.95550000
-84.73825210,-281.36540000
-84.69825210,-290.18520000
-84.65825210,-290.18520000
-84.61825210,-294.59520000
-84.57825210,-299.00510000
-84.53825210,-303.41500000
-84.49825210,-307.82490000
-84.45825210,-312.23490000
-84.41825210,-312.23490000
-84.37825210,-316.64480000
-84.33825210,-316.64480000
-84.29825210,-325.47990000
-84.25825210,-325.47990000
-84.21825210,-329.88980000
-84.17825210,-334.29970000
-84.13825210,-334.29970000
-84.09825210,-338.70970000
-84.05825210,-343.11960000
-84.01825210,-347.52950000
-83.97825210,-347.52950000
-83.93825210,-351.93940000
-83.89825210,-351.93940000
-83.85825210,-360.75930000
-83.81825210,-365.16920000
-83.77825210,-365.16920000
-83.73825210,-365.16920000
-83.69825211,-369.57910000
-83.65825211,-369.57910000
-83.61825211,-374.00430000
-83.57825211,-378.41420000
-83.53825211,-382.82420000
-83.49825211,-382.82420000
-83.45825211,-382.82420000
-83.41825211,-387.23410000
-83.37825211,-387.23410000
-83.33825211,-396.05400000
-83.29825211,-396.05400000
-83.25825211,-400.46390000
-83.21825211,-400.46390000
-83.17825211,-400.46390000
-83.13825211,-404.87380000
-83.09825211,-404.87380000
-83.05825211,-409.28370000
-83.01825211,-413.69360000
-82.97825211,-413.69360000
-82.93825211,-418.11880000
-82.89825211,-418.11880000
-82.85825211,-418.11880000
-82.81825211,-422.52870000
-82.77825211,-422.52870000
-82.73825211,-422.52870000
-82.69825211,-431.34860000
-82.65825211,-431.34860000
-82.61825211,-431.34860000
-82.57825211,-435.75850000
-82.53825211,-435.75850000
-82.49825211,-435.75850000
-82.45825211,-435.75850000
-82.41825211,-435.75850000
-82.37825211,-440.16850000
-82.33825211,-440.16850000
-82.29825211,-440.16850000
-82.25825211,-444.57830000
-82.21825211,-444.57830000
-82.17825211,-448.98830000
-82.13825211,-448.98830000
-82.09825211,-453.39820000
-82.05825212,-453.39820000
-82.01825212,-453.39820000
-81.97825212,-453.39820000
-81.93825212,-453.39820000
-81.89825212,-453.39820000
-81.85825212,-453.39820000
-81.81825212,-457.80810000
-81.77825212,-457.80810000
-81.73825212,-457.80810000
-81.69825212,-457.80810000
-81.65825212,-457.80810000
-81.61825212,-457.80810000
-81.57825212,-462.21800000
-81.53825212,-457.80810000
-81.49825212,-457.80810000
-81.45825212,-462.21800000
-81.41825212,-462.21800000
-81.37825212,-466.64320000
-81.33825212,-462.21800000
-81.29825212,-462.21800000
-81.25825212,-462.21800000
-81.21825212,-462.21800000
-81.17825212,-466.64320000
-81.13825212,-466.64320000
-81.09825212,-466.64320000
-81.05825212,-466.64320000
-81.01825212,-462.21800000
-80.97825212,-462.21800000
-80.93825212,-462.21800000
-80.89825212,-466.64320000
-80.85825212,-462.21800000
-80.81825212,-457.80810000
-80.77825212,-462.21800000
-80.73825212,-462.21800000
-80.69825212,-462.21800000
-80.65825212,-457.80810000
-80.61825212,-457.80810000
-80.57825212,-457.80810000
-80.53825212,-457.80810000
-80.49825212,-457.80810000
-80.45825212,-457.80810000
-80.41825213,-453.39820000
-80.37825213,-453.39820000
-80.33825213,-453.39820000
-80.29825213,-453.39820000
-80.25825213,-453.39820000
-80.21825213,-453.39820000
-80.17825213,-453.39820000
-80.13825213,-448.98830000
-80.09825213,-448.98830000
-80.05825213,-444.57830000
-80.01825213,-444.57830000
-79.97825213,-440.16850000
-79.93825213,-440.16850000
-79.89825213,-440.16850000
-79.85825213,-435.75850000
-79.81825213,-435.75850000
-79.77825213,-435.75850000
-79.73825213,-435.75850000
-79.69825213,-431.34860000
-79.65825213,-431.34860000
-79.61825213,-431.34860000
-79.57825213,-426.93870000
-79.53825213,-422.52870000
-79.49825213,-422.52870000
-79.45825213,-422.52870000
-79.41825213,-418.11880000
-79.37825213,-418.11880000
-79.33825213,-418.11880000
-79.29825213,-413.69360000
-79.25825213,-413.69360000
-79.21825213,-409.28370000
-79.17825213,-404.87380000
-79.13825213,-404.87380000
-79.09825213,-404.87380000
-79.05825213,-400.46390000
-79.01825213,-400.46390000
-78.97825213,-396.05400000
-78.93825213,-396.05400000
-78.89825213,-387.23410000
-78.85825213,-387.23410000
-78.81825213,-382.82420000
-78.77825213,-382.82420000
-78.73825214,-382.82420000
-78.69825214,-378.41420000
-78.65825214,-378.41420000
-78.61825214,-369.57910000
-78.57825214,-365.16920000
-78.53825214,-365.16920000
-78.49825214,-365.16920000
-78.45825214,-360.75930000
-78.41825214,-360.75930000
-78.37825214,-351.93940000
-78.33825214,-351.93940000
-78.29825214,-347.52950000
-78.25825214,-347.52950000
-78.21825214,-343.11960000
-78.17825214,-338.70970000
-78.13825214,-334.29970000
-78.09825214,-334.29970000
-78.05825214,-329.88980000
-78.01825214,-325.47990000
-77.97825214,-325.47990000
-77.93825214,-321.05470000
-77.89825214,-316.64480000
-77.85825214,-312.23490000
-77.81825214,-307.82490000
-77.77825214,-303.41500000
-77.73825214,-299.00510000
-77.69825214,-299.00510000
-77.65825214,-294.59520000
-77.61825214,-290.18520000
-77.57825214,-285.77530000
-77.53825214,-281.36540000
-77.49825214,-281.36540000
-77.45825214,-276.95550000
-77.41825214,-272.53030000
-77.37825214,-268.12040000
-77.33825214,-263.71040000
-77.29825214,-259.30050000
-77.25825214,-259.30050000
-77.21825214,-254.89060000
-77.17825214,-246.07070000
-77.13825214,-241.66080000
-77.09825215,-241.66080000
-77.05825215,-237.25090000
-77.01825215,-232.84100000
-76.97825215,-228.41580000
-76.93825215,-224.00580000
-76.89825215,-219.59590000
-76.85825215,-215.18600000
-76.81825215,-210.77610000
-76.77825215,-206.36610000
-76.73825215,-201.95620000
-76.69825215,-201.95620000
-76.65825215,-193.13640000
-76.61825215,-188.72640000
-76.57825215,-188.72640000
-76.53825215,-184.31650000
-76.49825215,-175.48140000
-76.45825215,-171.07150000
-76.41825215,-171.07150000
-76.37825215,-166.66160000
-76.33825215,-157.84170000
-76.29825215,-153.43180000
-76.25825215,-153.43180000
-76.21825215,-149.02190000
-76.17825215,-140.20200000
-76.13825215,-135.79210000
-76.09825215,-135.79210000
-76.05825215,-126.95700000
-76.01825215,-122.54710000
-75.97825215,-118.13710000
-75.93825215,-118.13710000
-75.89825215,-109.31730000
-75.85825215,-104.90740000
-75.81825215,-100.49750000
-75.77825215,-96.08752000
-75.73825215,-91.67760000
-75.69825215,-87.25241000
-75.65825215,-82.84248000
-75.61825215,-78.43256000
-75.57825215,-69.61272000
-75.53825215,-65.20279000
-75.49825215,-65.20279000
-75.45825216,-60.79287000
-75.41825216,-51.97302000
-75.37825216,-51.97302000
-75.33825216,-47.56310000
-75.29825216,-38.72799000
-75.25825216,-34.31806000
-75.21825216,-29.90814000
-75.17825216,-25.49821000
-75.13825216,-16.67836000
-75.09825216,-12.26844000
-75.05825216,-12.26844000
-75.01825216,-7.85851600
-74.97825216,0.96133300
-74.93825216,5.37125700
-74.89825216,5.37125700
-74.85825216,14.19111000
-74.81825216,18.60103000
-74.77825216,23.01095000
-74.73825216,27.42088000
-74.69825216,31.83080000
-74.65825216,36.24073000
-74.61825216,40.65065000
-74.57825216,45.06058000
-74.53825216,53.89569000
-74.49825216,53.89569000
-74.45825216,58.30561000
-74.41825216,62.71553000
-74.37825216,71.53539000
-74.33825216,75.94530000
-74.29825216,75.94530000
-74.25825216,84.76515000
-74.21825216,89.17508000
-74.17825216,93.58500000
-74.13825216,97.99493000
-74.09825216,97.99493000
-74.05825216,106.83000000
-74.01825216,111.24000000
-73.97825216,115.64990000
-73.93825216,120.05980000
-73.89825216,124.46970000
-73.85825216,128.87970000
-73.81825217,133.28960000
-73.77825217,142.10940000
-73.73825217,142.10940000
-73.69825217,146.53460000
-73.65825217,150.94450000
-73.61825217,159.76440000
-73.57825217,159.76440000
-73.53825217,164.17430000
-73.49825217,164.17430000
-73.45825217,177.40410000
-73.41825217,181.81400000
-73.37825217,181.81400000
-73.33825217,186.22390000
-73.29825217,195.05900000
-73.25825217,199.46900000
-73.21825217,199.46900000
-73.17825217,203.87890000
-73.13825217,208.28880000
-73.09825217,212.69870000
-73.05825217,217.10870000
-73.01825217,221.51860000
-72.97825217,221.51860000
-72.93825217,230.33840000
-72.89825217,234.74840000
-72.85825217,239.15830000
-72.81825217,243.58350000
-72.77825217,247.99340000
-72.73825217,252.40330000
-72.69825217,252.40330000
-72.65825217,261.22310000
-72.61825217,265.63310000
-72.57825217,270.04300000
-72.53825217,270.04300000
-72.49825217,274.45290000
-72.45825217,278.86290000
-72.41825217,283.27280000
-72.37825217,287.69800000
-72.33825217,292.10790000
-72.29825217,296.51780000
-72.25825217,296.51780000
-72.21825217,305.33770000
-72.17825218,305.33770000
-72.13825218,305.33770000
-72.09825218,314.15750000
-72.05825218,318.56740000
-72.01825218,318.56740000
-71.97825218,322.97740000
-71.93825218,327.38730000
-71.89825218,331.79720000
-71.85825218,336.22240000
-71.81825218,340.63230000
-71.77825218,340.63230000
-71.73825218,345.04220000
-71.69825218,345.04220000
-71.65825218,353.86210000
-71.61825218,353.86210000
-71.57825218,358.27200000
-71.53825218,358.27200000
-71.49825218,362.68190000
-71.45825218,367.09190000
-71.41825218,371.50180000
-71.37825218,375.91170000
-71.33825218,375.91170000
-71.29825218,375.91170000
-71.25825218,380.32160000
-71.21825218,384.74680000
-71.17825218,389.15670000
-71.13825218,389.15670000
-71.09825218,393.56670000
-71.05825218,393.56670000
-71.01825218,397.97660000
-70.97825218,397.97660000
-70.93825218,402.38650000
-70.89825218,406.79640000
-70.85825218,411.20640000
-70.81825218,411.20640000
-70.77825218,411.20640000
-70.73825218,415.61630000
-70.69825218,420.02620000
-70.65825218,420.02620000
-70.61825218,424.43620000
-70.57825218,428.86130000
-70.53825219,428.86130000
-70.49825219,428.86130000
-70.45825219,433.27130000
-70.41825219,433.27130000
-70.37825219,433.27130000
-70.33825219,437.68120000
-70.29825219,442.09110000
-70.25825219,442.09110000
-70.21825219,442.09110000
-70.17825219,446.50100000
-70.13825219,446.50100000
-70.09825219,446.50100000
-70.05825219,450.91090000
-70.01825219,450.91090000
-69.97825219,450.91090000
-69.93825219,459.73080000
-69.89825219,459.73080000
-69.85825219,459.73080000
-69.81825219,459.73080000
-69.77825219,459.73080000
-69.73825219,464.14070000
