Time,Channel B
(us),(mV)

-100.11527047,-16.67836000
-100.07527047,-12.26844000
-100.03527047,-7.85851600
-99.99527047,-3.44859100
-99.95527047,0.96133300
-99.91527047,5.37125700
-99.87527047,9.78118100
-99.83527047,9.78118100
-99.79527047,18.60103000
-99.75527047,23.01095000
-99.71527047,27.42088000
-99.67527047,31.83080000
-99.63527047,36.24073000
-99.59527047,40.65065000
-99.55527047,45.06058000
-99.51527047,53.89569000
-99.47527047,53.89569000
-99.43527047,58.30561000
-99.39527047,62.71553000
-99.35527047,71.53539000
-99.31527048,75.94530000
-99.27527048,75.94530000
-99.23527048,80.35523000
-99.19527048,84.76515000
-99.15527048,89.17508000
-99.11527048,93.58500000
-99.07527048,97.99493000
-99.03527048,102.42010000
-98.99527048,106.83000000
-98.95527048,111.24000000
-98.91527048,115.64990000
-98.87527048,120.05980000
-98.83527048,124.46970000
-98.79527048,128.87970000
-98.75527048,133.28960000
-98.71527048,137.69950000
-98.67527048,142.10940000
-98.63527048,146.53460000
-98.59527048,150.94450000
-98.55527048,159.76440000
-98.51527048,159.76440000
-98.47527048,164.17430000
-98.43527048,164.17430000
-98.39527048,168.58420000
-98.35527048,177.40410000
-98.31527048,181.81400000
-98.27527048,181.81400000
-98.23527048,190.63390000
-98.19527048,195.05900000
-98.15527048,199.46900000
-98.11527048,199.46900000
-98.07527048,203.87890000
-98.03527048,208.28880000
-97.99527048,212.69870000
-97.95527048,217.10870000
-97.91527048,217.10870000
-97.87527048,225.92850000
-97.83527048,230.33840000
-97.79527048,234.74840000
-97.75527048,234.74840000
-97.71527048,239.15830000
-97.67527049,243.58350000
-97.63527049,247.99340000
-97.59527049,252.40330000
-97.55527049,252.40330000
-97.51527049,261.22310000
-97.47527049,265.63310000
-97.43527049,265.63310000
-97.39527049,270.04300000
-97.35527049,274.45290000
-97.31527049,274.45290000
-97.27527049,283.27280000
-97.23527049,287.69800000
-97.19527049,287.69800000
-97.15527049,292.10790000
-97.11527049,296.51780000
-97.07527049,300.92770000
-97.03527049,305.33770000
-96.99527049,305.33770000
-96.95527049,305.33770000
-96.91527049,314.15750000
-96.87527049,318.56740000
-96.83527049,318.56740000
-96.79527049,322.97740000
-96.75527049,322.97740000
-96.71527049,327.38730000
-96.67527049,331.79720000
-96.63527049,336.22240000
-96.59527049,336.22240000
-96.55527049,340.63230000
-96.51527049,340.63230000
-96.47527049,345.04220000
-96.43527049,353.86210000
-96.39527049,353.86210000
-96.35527049,358.27200000
-96.31527049,358.27200000
-96.27527049,362.68190000
-96.23527049,362.68190000
-96.19527049,367.09190000
-96.15527049,371.50180000
-96.11527049,371.50180000
-96.07527049,375.91170000
-96.03527050,375.91170000
-95.99527050,380.32160000
-95.95527050,384.74680000
-95.91527050,384.74680000
-95.87527050,389.15670000
-95.83527050,389.15670000
-95.79527050,393.56670000
-95.75527050,393.56670000
-95.71527050,393.56670000
-95.67527050,397.97660000
-95.63527050,402.38650000
-95.59527050,402.38650000
-95.55527050,406.79640000
-95.51527050,406.79640000
-95.47527050,411.20640000
-95.43527050,411.20640000
-95.39527050,411.20640000
-95.35527050,415.61630000
-95.31527050,415.61630000
-95.27527050,415.61630000
-95.23527050,420.02620000
-95.19527050,424.43620000
-95.15527050,424.43620000
-95.11527050,424.43620000
-95.07527050,428.86130000
-95.03527050,428.86130000
-94.99527050,428.86130000
-94.95527050,433.27130000
-94.91527050,433.27130000
-94.87527050,433.27130000
-94.83527050,433.27130000
-94.79527050,437.68120000
-94.75527050,437.68120000
-94.71527050,437.68120000
-94.67527050,442.09110000
-94.63527050,442.09110000
-94.59527050,442.09110000
-94.55527050,446.50100000
-94.51527050,446.50100000
-94.47527050,446.50100000
-94.43527050,446.50100000
-94.39527051,446.50100000
-94.35527051,446.50100000
-94.31527051,446.50100000
-94.27527051,450.91090000
-94.23527051,450.91090000
-94.19527051,450.91090000
-94.15527051,450.91090000
-94.11527051,450.91090000
-94.07527051,455.32090000
-94.03527051,455.32090000
-93.99527051,455.32090000
-93.95527051,455.32090000
-93.91527051,455.32090000
-93.87527051,455.32090000
-93.83527051,459.73080000
-93.79527051,459.73080000
-93.75527051,455.32090000
-93.71527051,459.73080000
-93.67527051,459.73080000
-93.63527051,459.73080000
-93.59527051,459.73080000
-93.55527051,459.73080000
-93.51527051,459.73080000
-93.47527051,459.73080000
-93.43527051,459.73080000
-93.39527051,459.73080000
-93.35527051,455.32090000
-93.31527051,459.73080000
-93.27527051,450.91090000
-93.23527051,455.32090000
-93.19527051,450.91090000
-93.15527051,450.91090000
-93.11527051,450.91090000
-93.07527051,450.91090000
-93.03527051,450.91090000
-92.99527051,446.50100000
-92.95527051,446.50100000
-92.91527051,446.50100000
-92.87527051,446.50100000
-92.83527051,446.50100000
-92.79527051,446.50100000
-92.75527051,446.50100000
-92.71527052,446.50100000
-92.67527052,442.09110000
-92.63527052,442.09110000
-92.59527052,442.09110000
-92.55527052,442.09110000
-92.51527052,437.68120000
-92.47527052,437.68120000
-92.43527052,433.27130000
-92.39527052,433.27130000
-92.35527052,433.27130000
-92.31527052,433.27130000
-92.27527052,428.86130000
-92.23527052,428.86130000
-92.19527052,428.86130000
-92.15527052,428.86130000
-92.11527052,424.43620000
-92.07527052,424.43620000
-92.03527052,424.43620000
-91.99527052,415.61630000
-91.95527052,415.61630000
-91.91527052,415.61630000
-91.87527052,411.20640000
-91.83527052,411.20640000
-91.79527052,411.20640000
-91.75527052,406.79640000
-91.71527052,406.79640000
-91.67527052,402.38650000
-91.63527052,397.97660000
-91.59527052,397.97660000
-91.55527052,393.56670000
-91.51527052,393.56670000
-91.47527052,393.56670000
-91.43527052,389.15670000
-91.39527052,389.15670000
-91.35527052,384.74680000
-91.31527052,380.32160000
-91.27527052,380.32160000
-91.23527052,375.91170000
-91.19527052,375.91170000
-91.15527052,375.91170000
-91.11527052,371.50180000
-91.07527053,371.50180000
-91.03527053,367.09190000
-90.99527053,358.27200000
-90.95527053,358.27200000
-90.91527053,358.27200000
-90.87527053,353.86210000
-90.83527053,349.45220000
-90.79527053,349.45220000
-90.75527053,345.04220000
-90.71527053,340.63230000
-90.67527053,340.63230000
-90.63527053,336.22240000
-90.59527053,331.79720000
-90.55527053,327.38730000
-90.51527053,327.38730000
-90.47527053,322.97740000
-90.43527053,318.56740000
-90.39527053,318.56740000
-90.35527053,309.74760000
-90.31527053,305.33770000
-90.27527053,305.33770000
-90.23527053,305.33770000
-90.19527053,300.92770000
-90.15527053,296.51780000
-90.11527053,292.10790000
-90.07527053,287.69800000
-90.03527053,287.69800000
-89.99527053,283.27280000
-89.95527053,278.86290000
-89.91527053,274.45290000
-89.87527053,270.04300000
-89.83527053,265.63310000
-89.79527053,265.63310000
-89.75527053,261.22310000
-89.71527053,252.40330000
-89.67527053,252.40330000
-89.63527053,247.99340000
-89.59527053,243.58350000
-89.55527053,234.74840000
-89.51527053,234.74840000
-89.47527053,234.74840000
-89.43527054,230.33840000
-89.39527054,225.92850000
-89.35527054,221.51860000
-89.31527054,217.10870000
-89.27527054,212.69870000
-89.23527054,212.69870000
-89.19527054,203.87890000
-89.15527054,199.46900000
-89.11527054,195.05900000
-89.07527054,195.05900000
-89.03527054,190.63390000
-88.99527054,186.22390000
-88.95527054,181.81400000
-88.91527054,177.40410000
-88.87527054,172.99420000
-88.83527054,168.58420000
-88.79527054,164.17430000
-88.75527054,159.76440000
-88.71527054,155.35450000
-88.67527054,150.94450000
-88.63527054,146.53460000
-88.59527054,142.10940000
-88.55527054,142.10940000
-88.51527054,133.28960000
-88.47527054,128.87970000
-88.43527054,124.46970000
-88.39527054,124.46970000
-88.35527054,115.64990000
-88.31527054,111.24000000
-88.27527054,106.83000000
-88.23527054,102.42010000
-88.19527054,97.99493000
-88.15527054,93.58500000
-88.11527054,89.17508000
-88.07527054,89.17508000
-88.03527054,80.35523000
-87.99527054,75.94530000
-87.95527054,71.53539000
-87.91527054,71.53539000
-87.87527054,62.71553000
-87.83527054,58.30561000
-87.79527055,53.89569000
-87.75527055,53.89569000
-87.71527055,45.06058000
-87.67527055,40.65065000
-87.63527055,36.24073000
-87.59527055,36.24073000
-87.55527055,27.42088000
-87.51527055,23.01095000
-87.47527055,18.60103000
-87.43527055,14.19111000
-87.39527055,9.78118100
-87.35527055,5.37125700
-87.31527055,0.96133300
-87.27527055,-3.44859100
-87.23527055,-7.85851600
-87.19527055,-12.26844000
-87.15527055,-16.67836000
-87.11527055,-21.08829000
-87.07527055,-29.90814000
-87.03527055,-34.31806000
-86.99527055,-43.15317000
-86.95527055,-43.15317000
-86.91527055,-43.15317000
-86.87527055,-47.56310000
-86.83527055,-51.97302000
-86.79527055,-56.38294000
-86.75527055,-65.20279000
-86.71527055,-65.20279000
-86.67527055,-69.61272000
-86.63527055,-78.43256000
-86.59527055,-82.84248000
-86.55527055,-82.84248000
-86.51527055,-87.25241000
-86.47527055,-91.67760000
-86.43527055,-100.49750000
-86.39527055,-100.49750000
-86.35527055,-104.90740000
-86.31527055,-113.72720000
-86.27527055,-113.72720000
-86.23527055,-118.13710000
-86.19527055,-122.54710000
-86.15527056,-126.95700000
-86.11527056,-135.79210000
-86.07527056,-135.79210000
-86.03527056,-140.20200000
-85.99527056,-149.02190000
-85.95527056,-153.43180000
-85.91527056,-153.43180000
-85.87527056,-157.84170000
-85.83527056,-162.25160000
-85.79527056,-166.66160000
-85.75527056,-171.07150000
-85.71527056,-175.48140000
-85.67527056,-175.48140000
-85.63527056,-184.31650000
-85.59527056,-188.72640000
-85.55527056,-188.72640000
-85.51527056,-193.13640000
-85.47527056,-197.54630000
-85.43527056,-201.95620000
-85.39527056,-206.36610000
-85.35527056,-210.77610000
-85.31527056,-210.77610000
-85.27527056,-219.59590000
-85.23527056,-224.00580000
-85.19527056,-228.41580000
-85.15527056,-228.41580000
-85.11527056,-232.84100000
-85.07527056,-241.66080000
-85.03527056,-241.66080000
-84.99527056,-241.66080000
-84.95527056,-246.07070000
-84.91527056,-254.89060000
-84.87527056,-259.30050000
-84.83527056,-259.30050000
-84.79527056,-263.71040000
-84.75527056,-268.12040000
-84.71527056,-272.53030000
-84.67527056,-276.95550000
-84.63527056,-276.95550000
-84.59527056,-281.36540000
-84.55527056,-281.36540000
-84.51527057,-290.18520000
-84.47527057,-290.18520000
-84.43527057,-294.59520000
-84.39527057,-294.59520000
-84.35527057,-299.00510000
-84.31527057,-303.41500000
-84.27527057,-307.82490000
-84.23527057,-312.23490000
-84.19527057,-312.23490000
-84.15527057,-316.64480000
-84.11527057,-321.05470000
-84.07527057,-325.47990000
-84.03527057,-329.88980000
-83.99527057,-329.88980000
-83.95527057,-334.29970000
-83.91527057,-334.29970000
-83.87527057,-338.70970000
-83.83527057,-343.11960000
-83.79527057,-343.11960000
-83.75527057,-347.52950000
-83.71527057,-347.52950000
-83.67527057,-351.93940000
-83.63527057,-351.93940000
-83.59527057,-360.75930000
-83.55527057,-360.75930000
-83.51527057,-360.75930000
-83.47527057,-365.16920000
-83.43527057,-365.16920000
-83.39527057,-369.57910000
-83.35527057,-369.57910000
-83.31527057,-374.00430000
-83.27527057,-378.41420000
-83.23527057,-378.41420000
-83.19527057,-382.82420000
-83.15527057,-382.82420000
-83.11527057,-387.23410000
-83.07527057,-387.23410000
-83.03527057,-387.23410000
-82.99527057,-396.05400000
-82.95527057,-396.05400000
-82.91527057,-396.05400000
-82.87527058,-400.46390000
-82.83527058,-400.46390000
-82.79527058,-400.46390000
-82.75527058,-400.46390000
-82.71527058,-404.87380000
-82.67527058,-404.87380000
-82.63527058,-409.28370000
-82.59527058,-409.28370000
-82.55527058,-413.69360000
-82.51527058,-413.69360000
-82.47527058,-418.11880000
-82.43527058,-418.11880000
-82.39527058,-418.11880000
-82.35527058,-418.11880000
-82.31527058,-422.52870000
-82.27527058,-422.52870000
-82.23527058,-422.52870000
-82.19527058,-422.52870000
-82.15527058,-426.93870000
-82.11527058,-426.93870000
-82.07527058,-426.93870000
-82.03527058,-431.34860000
-81.99527058,-431.34860000
-81.95527058,-431.34860000
-81.91527058,-431.34860000
-81.87527058,-435.75850000
-81.83527058,-431.34860000
-81.79527058,-435.75850000
-81.75527058,-435.75850000
-81.71527058,-435.75850000
-81.67527058,-435.75850000
-81.63527058,-435.75850000
-81.59527058,-435.75850000
-81.55527058,-435.75850000
-81.51527058,-435.75850000
-81.47527058,-435.75850000
-81.43527058,-435.75850000
-81.39527058,-440.16850000
-81.35527058,-440.16850000
-81.31527058,-440.16850000
-81.27527058,-440.16850000
-81.23527059,-440.16850000
-81.19527059,-440.16850000
-81.15527059,-440.16850000
-81.11527059,-440.16850000
-81.07527059,-440.16850000
-81.03527059,-440.16850000
-80.99527059,-435.75850000
-80.95527059,-440.16850000
-80.91527059,-440.16850000
-80.87527059,-435.75850000
-80.83527059,-435.75850000
-80.79527059,-435.75850000
-80.75527059,-440.16850000
-80.71527059,-435.75850000
-80.67527059,-435.75850000
-80.63527059,-435.75850000
-80.59527059,-435.75850000
-80.55527059,-435.75850000
-80.51527059,-435.75850000
-80.47527059,-435.75850000
-80.43527059,-435.75850000
-80.39527059,-431.34860000
-80.35527059,-431.34860000
-80.31527059,-431.34860000
-80.27527059,-431.34860000
-80.23527059,-431.34860000
-80.19527059,-426.93870000
-80.15527059,-426.93870000
-80.11527059,-422.52870000
-80.07527059,-422.52870000
-80.03527059,-422.52870000
-79.99527059,-418.11880000
-79.95527059,-418.11880000
-79.91527059,-418.11880000
-79.87527059,-418.11880000
-79.83527059,-418.11880000
-79.79527059,-418.11880000
-79.75527059,-413.69360000
-79.71527059,-413.69360000
-79.67527059,-409.28370000
-79.63527059,-409.28370000
-79.59527059,-404.87380000
-79.55527060,-404.87380000
-79.51527060,-404.87380000
-79.47527060,-400.46390000
-79.43527060,-400.46390000
-79.39527060,-400.46390000
-79.35527060,-396.05400000
-79.31527060,-391.64400000
-79.27527060,-391.64400000
-79.23527060,-387.23410000
-79.19527060,-387.23410000
-79.15527060,-387.23410000
-79.11527060,-382.82420000
-79.07527060,-382.82420000
-79.03527060,-382.82420000
-78.99527060,-374.00430000
-78.95527060,-374.00430000
-78.91527060,-374.00430000
-78.87527060,-369.57910000
-78.83527060,-365.16920000
-78.79527060,-365.16920000
-78.75527060,-365.16920000
-78.71527060,-360.75930000
-78.67527060,-356.34940000
-78.63527060,-351.93940000
-78.59527060,-351.93940000
-78.55527060,-347.52950000
-78.51527060,-347.52950000
-78.47527060,-343.11960000
-78.43527060,-343.11960000
-78.39527060,-338.70970000
-78.35527060,-334.29970000
-78.31527060,-329.88980000
-78.27527060,-329.88980000
-78.23527060,-325.47990000
-78.19527060,-325.47990000
-78.15527060,-321.05470000
-78.11527060,-321.05470000
-78.07527060,-312.23490000
-78.03527060,-312.23490000
-77.99527060,-307.82490000
-77.95527060,-307.82490000
-77.91527061,-299.00510000
-77.87527061,-294.59520000
-77.83527061,-294.59520000
-77.79527061,-290.18520000
-77.75527061,-290.18520000
-77.71527061,-281.36540000
-77.67527061,-281.36540000
-77.63527061,-276.95550000
-77.59527061,-272.53030000
-77.55527061,-272.53030000
-77.51527061,-268.12040000
-77.47527061,-263.71040000
-77.43527061,-259.30050000
-77.39527061,-254.89060000
-77.35527061,-254.89060000
-77.31527061,-246.07070000
-77.27527061,-241.66080000
-77.23527061,-241.66080000
-77.19527061,-237.25090000
-77.15527061,-232.84100000
-77.11527061,-228.41580000
-77.07527061,-228.41580000
-77.03527061,-224.00580000
-76.99527061,-219.59590000
-76.95527061,-215.18600000
-76.91527061,-210.77610000
-76.87527061,-206.36610000
-76.83527061,-201.95620000
-76.79527061,-197.54630000
-76.75527061,-197.54630000
-76.71527061,-188.72640000
-76.67527061,-188.72640000
-76.63527061,-184.31650000
-76.59527061,-179.89130000
-76.55527061,-175.48140000
-76.51527061,-171.07150000
-76.47527061,-166.66160000
-76.43527061,-157.84170000
-76.39527061,-157.84170000
-76.35527061,-153.43180000
-76.31527061,-149.02190000
-76.27527062,-144.61190000
-76.23527062,-140.20200000
-76.19527062,-135.79210000
-76.15527062,-131.36690000
-76.11527062,-131.36690000
-76.07527062,-122.54710000
-76.03527062,-118.13710000
-75.99527062,-118.13710000
-75.95527062,-109.31730000
-75.91527062,-104.90740000
-75.87527062,-100.49750000
-75.83527062,-100.49750000
-75.79527062,-96.08752000
-75.75527062,-87.25241000
-75.71527062,-82.84248000
-75.67527062,-78.43256000
-75.63527062,-78.43256000
-75.59527062,-69.61272000
-75.55527062,-65.20279000
-75.51527062,-65.20279000
-75.47527062,-60.79287000
-75.43527062,-51.97302000
-75.39527062,-47.56310000
-75.35527062,-47.56310000
-75.31527062,-43.15317000
-75.27527062,-34.31806000
-75.23527062,-29.90814000
-75.19527062,-29.90814000
-75.15527062,-21.08829000
-75.11527062,-16.67836000
-75.07527062,-12.26844000
-75.03527062,-7.85851600
-74.99527062,-7.85851600
-74.95527062,0.96133300
-74.91527062,5.37125700
-74.87527062,9.78118100
-74.83527062,9.78118100
-74.79527062,18.60103000
-74.75527062,23.01095000
-74.71527062,27.42088000
-74.67527062,27.42088000
-74.63527063,36.24073000
-74.59527063,40.65065000
-74.55527063,45.06058000
-74.51527063,49.47050000
-74.47527063,53.89569000
-74.43527063,58.30561000
-74.39527063,62.71553000
-74.35527063,67.12546000
-74.31527063,71.53539000
-74.27527063,75.94530000
-74.23527063,80.35523000
-74.19527063,84.76515000
-74.15527063,89.17508000
-74.11527063,93.58500000
-74.07527063,97.99493000
-74.03527063,106.83000000
-73.99527063,111.24000000
-73.95527063,111.24000000
-73.91527063,115.64990000
-73.87527063,124.46970000
-73.83527063,124.46970000
-73.79527063,128.87970000
-73.75527063,133.28960000
-73.71527063,142.10940000
-73.67527063,142.10940000
-73.63527063,146.53460000
-73.59527063,150.94450000
-73.55527063,155.35450000
-73.51527063,159.76440000
-73.47527063,164.17430000
-73.43527063,168.58420000
-73.39527063,172.99420000
-73.35527063,177.40410000
-73.31527063,181.81400000
-73.27527063,181.81400000
-73.23527063,190.63390000
-73.19527063,195.05900000
-73.15527063,199.46900000
-73.11527063,199.46900000
-73.07527063,203.87890000
-73.03527063,212.69870000
-72.99527064,212.69870000
-72.95527064,217.10870000
-72.91527064,221.51860000
-72.87527064,225.92850000
-72.83527064,230.33840000
-72.79527064,234.74840000
-72.75527064,234.74840000
-72.71527064,239.15830000
-72.67527064,243.58350000
-72.63527064,247.99340000
-72.59527064,252.40330000
-72.55527064,256.81320000
-72.51527064,261.22310000
-72.47527064,265.63310000
-72.43527064,265.63310000
-72.39527064,270.04300000
-72.35527064,274.45290000
-72.31527064,274.45290000
-72.27527064,283.27280000
-72.23527064,287.69800000
-72.19527064,287.69800000
-72.15527064,292.10790000
-72.11527064,296.51780000
-72.07527064,300.92770000
-72.03527064,305.33770000
-71.99527064,305.33770000
-71.95527064,309.74760000
-71.91527064,309.74760000
-71.87527064,318.56740000
-71.83527064,318.56740000
-71.79527064,322.97740000
-71.75527064,322.97740000
-71.71527064,327.38730000
-71.67527064,331.79720000
-71.63527064,336.22240000
-71.59527064,340.63230000
-71.55527064,340.63230000
-71.51527064,345.04220000
-71.47527064,349.45220000
-71.43527064,349.45220000
-71.39527064,353.86210000
-71.35527065,358.27200000
-71.31527065,358.27200000
-71.27527065,362.68190000
-71.23527065,362.68190000
-71.19527065,367.09190000
-71.15527065,371.50180000
-71.11527065,371.50180000
-71.07527065,375.91170000
-71.03527065,375.91170000
-70.99527065,380.32160000
-70.95527065,380.32160000
-70.91527065,384.74680000
-70.87527065,389.15670000
-70.83527065,389.15670000
-70.79527065,393.56670000
-70.75527065,393.56670000
-70.71527065,397.97660000
-70.67527065,397.97660000
-70.63527065,402.38650000
-70.59527065,406.79640000
-70.55527065,406.79640000
-70.51527065,406.79640000
-70.47527065,411.20640000
-70.43527065,411.20640000
-70.39527065,411.20640000
-70.35527065,411.20640000
-70.31527065,415.61630000
-70.27527065,424.43620000
-70.23527065,424.43620000
-70.19527065,424.43620000
-70.15527065,424.43620000
-70.11527065,424.43620000
-70.07527065,428.86130000
-70.03527065,428.86130000
-69.99527065,428.86130000
-69.95527065,433.27130000
-69.91527065,433.27130000
-69.87527065,433.27130000
-69.83527065,437.68120000
-69.79527065,437.68120000
-69.75527065,442.09110000
-69.71527066,442.09110000
