Time,Channel B
(us),(mV)

-100.10821279,-6.98263500
-100.06821279,-5.21866500
-100.02821279,-3.45469500
-99.98821279,-1.69072500
-99.94821279,0.07324442
-99.90821279,1.83721400
-99.86821279,1.83721400
-99.82821279,3.60118400
-99.78821279,5.36515400
-99.74821279,7.12912400
-99.70821279,8.89309300
-99.66821279,10.65706000
-99.62821279,10.65706000
-99.58821279,14.18500000
-99.54821279,14.18500000
-99.50821280,15.94897000
-99.46821280,17.71294000
-99.42821280,19.47691000
-99.38821280,21.24088000
-99.34821280,21.24088000
-99.30821280,23.00485000
-99.26821280,24.76882000
-99.22821280,26.53279000
-99.18821280,28.29676000
-99.14821280,28.29676000
-99.10821280,30.06684000
-99.06821280,31.83080000
-99.02821280,33.59477000
-98.98821280,35.35874000
-98.94821280,37.12271000
-98.90821280,37.12271000
-98.86821280,38.88668000
-98.82821280,40.65065000
-98.78821280,42.41463000
-98.74821280,44.17860000
-98.70821280,44.17860000
-98.66821280,45.94257000
-98.62821280,47.70654000
-98.58821280,49.47050000
-98.54821280,51.23447000
-98.50821280,51.23447000
-98.46821280,52.99844000
-98.42821280,56.52638000
-98.38821280,56.52638000
-98.34821280,58.29646000
-98.30821280,58.29646000
-98.26821280,60.06042000
-98.22821280,61.82440000
-98.18821280,63.58836000
-98.14821280,63.58836000
-98.10821280,65.35233000
-98.06821280,67.11631000
-98.02821280,68.88028000
-97.98821280,70.64425000
-97.94821280,70.64425000
-97.90821280,72.40822000
-97.86821280,72.40822000
-97.82821281,74.17219000
-97.78821281,75.93616000
-97.74821281,77.70013000
-97.70821281,79.46410000
-97.66821281,79.46410000
-97.62821281,79.46410000
-97.58821281,81.22807000
-97.54821281,84.75600000
-97.50821281,84.75600000
-97.46821281,84.75600000
-97.42821281,86.52608000
-97.38821281,88.29005000
-97.34821281,88.29005000
-97.30821281,90.05402000
-97.26821281,91.81799000
-97.22821281,91.81799000
-97.18821281,93.58195000
-97.14821281,93.58195000
-97.10821281,95.34592000
-97.06821281,95.34592000
-97.02821281,98.87386000
-96.98821281,98.87386000
-96.94821281,100.63780000
-96.90821281,100.63780000
-96.86821281,100.63780000
-96.82821281,100.63780000
-96.78821281,104.16580000
-96.74821281,105.92970000
-96.70821281,107.69370000
-96.66821281,107.69370000
-96.62821281,107.69370000
-96.58821281,107.69370000
-96.54821281,109.45770000
-96.50821281,111.22170000
-96.46821281,112.98560000
-96.42821281,112.98560000
-96.38821281,112.98560000
-96.34821281,114.75570000
-96.30821281,114.75570000
-96.26821281,116.51970000
-96.22821281,116.51970000
-96.18821282,116.51970000
-96.14821282,118.28360000
-96.10821282,120.04760000
-96.06821282,120.04760000
-96.02821282,121.81160000
-95.98821282,121.81160000
-95.94821282,121.81160000
-95.90821282,121.81160000
-95.86821282,123.57550000
-95.82821282,123.57550000
-95.78821282,123.57550000
-95.74821282,127.10350000
-95.70821282,127.10350000
-95.66821282,127.10350000
-95.62821282,127.10350000
-95.58821282,128.86740000
-95.54821282,127.10350000
-95.50821282,128.86740000
-95.46821282,130.63140000
-95.42821282,130.63140000
-95.38821282,130.63140000
-95.34821282,130.63140000
-95.30821282,132.39540000
-95.26821282,132.39540000
-95.22821282,134.15940000
-95.18821282,134.15940000
-95.14821282,134.15940000
-95.10821282,134.15940000
-95.06821282,135.92330000
-95.02821282,135.92330000
-94.98821282,135.92330000
-94.94821282,135.92330000
-94.90821282,135.92330000
-94.86821282,135.92330000
-94.82821282,135.92330000
-94.78821282,137.68730000
-94.74821282,137.68730000
-94.70821282,137.68730000
-94.66821282,137.68730000
-94.62821282,137.68730000
-94.58821282,137.68730000
-94.54821283,137.68730000
-94.50821283,139.45130000
-94.46821283,139.45130000
-94.42821283,141.21520000
-94.38821283,141.21520000
-94.34821283,141.21520000
-94.30821283,141.21520000
-94.26821283,141.21520000
-94.22821283,141.21520000
-94.18821283,141.21520000
-94.14821283,141.21520000
-94.10821283,141.21520000
-94.06821283,141.21520000
-94.02821283,141.21520000
-93.98821283,141.21520000
-93.94821283,141.21520000
-93.90821283,141.21520000
-93.86821283,141.21520000
-93.82821283,141.21520000
-93.78821283,141.21520000
-93.74821283,141.21520000
-93.70821283,141.21520000
-93.66821283,141.21520000
-93.62821283,141.21520000
-93.58821283,141.21520000
-93.54821283,141.21520000
-93.50821283,141.21520000
-93.46821283,141.21520000
-93.42821283,139.45130000
-93.38821283,139.45130000
-93.34821283,137.68730000
-93.30821283,137.68730000
-93.26821283,137.68730000
-93.22821283,137.68730000
-93.18821283,137.68730000
-93.14821283,137.68730000
-93.10821283,137.68730000
-93.06821283,135.92330000
-93.02821283,135.92330000
-92.98821283,135.92330000
-92.94821283,135.92330000
-92.90821284,135.92330000
-92.86821284,135.92330000
-92.82821284,134.15940000
-92.78821284,134.15940000
-92.74821284,135.92330000
-92.70821284,132.39540000
-92.66821284,134.15940000
-92.62821284,132.39540000
-92.58821284,132.39540000
-92.54821284,130.63140000
-92.50821284,130.63140000
-92.46821284,128.86740000
-92.42821284,128.86740000
-92.38821284,128.86740000
-92.34821284,128.86740000
-92.30821284,128.86740000
-92.26821284,127.10350000
-92.22821284,127.10350000
-92.18821284,127.10350000
-92.14821284,127.10350000
-92.10821284,123.57550000
-92.06821284,123.57550000
-92.02821284,123.57550000
-91.98821284,121.81160000
-91.94821284,121.81160000
-91.90821284,121.81160000
-91.86821284,120.04760000
-91.82821284,120.04760000
-91.78821284,120.04760000
-91.74821284,118.28360000
-91.70821284,116.51970000
-91.66821284,116.51970000
-91.62821284,114.75570000
-91.58821284,114.75570000
-91.54821284,114.75570000
-91.50821284,112.98560000
-91.46821284,112.98560000
-91.42821284,111.22170000
-91.38821284,109.45770000
-91.34821284,109.45770000
-91.30821284,107.69370000
-91.26821285,107.69370000
-91.22821285,107.69370000
-91.18821285,105.92970000
-91.14821285,104.16580000
-91.10821285,104.16580000
-91.06821285,102.40180000
-91.02821285,100.63780000
-90.98821285,100.63780000
-90.94821285,100.63780000
-90.90821285,98.87386000
-90.86821285,98.87386000
-90.82821285,95.34592000
-90.78821285,95.34592000
-90.74821285,93.58195000
-90.70821285,93.58195000
-90.66821285,91.81799000
-90.62821285,91.81799000
-90.58821285,90.05402000
-90.54821285,90.05402000
-90.50821285,86.52608000
-90.46821285,86.52608000
-90.42821285,86.52608000
-90.38821285,84.75600000
-90.34821285,82.99203000
-90.30821285,81.22807000
-90.26821285,81.22807000
-90.22821285,79.46410000
-90.18821285,79.46410000
-90.14821285,77.70013000
-90.10821285,75.93616000
-90.06821285,74.17219000
-90.02821285,74.17219000
-89.98821285,72.40822000
-89.94821285,72.40822000
-89.90821285,70.64425000
-89.86821285,67.11631000
-89.82821285,67.11631000
-89.78821285,65.35233000
-89.74821285,63.58836000
-89.70821285,63.58836000
-89.66821285,61.82440000
-89.62821286,60.06042000
-89.58821286,58.29646000
-89.54821286,58.29646000
-89.50821286,56.52638000
-89.46821286,56.52638000
-89.42821286,52.99844000
-89.38821286,51.23447000
-89.34821286,51.23447000
-89.30821286,51.23447000
-89.26821286,49.47050000
-89.22821286,47.70654000
-89.18821286,44.17860000
-89.14821286,44.17860000
-89.10821286,42.41463000
-89.06821286,42.41463000
-89.02821286,38.88668000
-88.98821286,38.88668000
-88.94821286,37.12271000
-88.90821286,37.12271000
-88.86821286,35.35874000
-88.82821286,31.83080000
-88.78821286,30.06684000
-88.74821286,30.06684000
-88.70821286,28.29676000
-88.66821286,26.53279000
-88.62821286,24.76882000
-88.58821286,23.00485000
-88.54821286,23.00485000
-88.50821286,23.00485000
-88.46821286,19.47691000
-88.42821286,17.71294000
-88.38821286,15.94897000
-88.34821286,15.94897000
-88.30821286,14.18500000
-88.26821286,10.65706000
-88.22821286,8.89309300
-88.18821286,8.89309300
-88.14821286,7.12912400
-88.10821286,7.12912400
-88.06821286,3.60118400
-88.02821286,3.60118400
-87.98821287,1.83721400
-87.94821287,0.07324442
-87.90821287,-1.69072500
-87.86821287,-3.45469500
-87.82821287,-5.21866500
-87.78821287,-5.21866500
-87.74821287,-6.98263500
-87.70821287,-8.74660500
-87.66821287,-10.51057000
-87.62821287,-12.27454000
-87.58821287,-14.03851000
-87.54821287,-15.80248000
-87.50821287,-17.56645000
-87.46821287,-19.33042000
-87.42821287,-19.33042000
-87.38821287,-21.09439000
-87.34821287,-22.85836000
-87.30821287,-24.62233000
-87.26821287,-26.39241000
-87.22821287,-26.39241000
-87.18821287,-28.15638000
-87.14821287,-29.92035000
-87.10821287,-31.68431000
-87.06821287,-33.44828000
-87.02821287,-35.21225000
-86.98821287,-35.21225000
-86.94821287,-38.74020000
-86.90821287,-40.50417000
-86.86821287,-40.50417000
-86.82821287,-40.50417000
-86.78821287,-45.79607000
-86.74821287,-45.79607000
-86.70821287,-47.56004000
-86.66821287,-47.56004000
-86.62821287,-49.32401000
-86.58821287,-51.08798000
-86.54821287,-52.85195000
-86.50821287,-54.62203000
-86.46821287,-54.62203000
-86.42821287,-56.38600000
-86.38821287,-58.14997000
-86.34821288,-59.91394000
-86.30821288,-61.67791000
-86.26821288,-61.67791000
-86.22821288,-63.44188000
-86.18821288,-65.20585000
-86.14821288,-66.96982000
-86.10821288,-68.73379000
-86.06821288,-68.73379000
-86.02821288,-70.49776000
-85.98821288,-74.02570000
-85.94821288,-72.26173000
-85.90821288,-75.78967000
-85.86821288,-77.55363000
-85.82821288,-77.55363000
-85.78821288,-77.55363000
-85.74821288,-81.08157000
-85.70821288,-81.08157000
-85.66821288,-82.85165000
-85.62821288,-82.85165000
-85.58821288,-84.61562000
-85.54821288,-86.37959000
-85.50821288,-88.14356000
-85.46821288,-89.90753000
-85.42821288,-89.90753000
-85.38821288,-91.67150000
-85.34821288,-93.43547000
-85.30821288,-95.19944000
-85.26821288,-96.96341000
-85.22821288,-96.96341000
-85.18821288,-98.72738000
-85.14821288,-98.72738000
-85.10821288,-98.72738000
-85.06821288,-102.25530000
-85.02821288,-104.01930000
-84.98821288,-104.01930000
-84.94821288,-105.78330000
-84.90821288,-105.78330000
-84.86821288,-107.54720000
-84.82821288,-109.31120000
-84.78821288,-109.31120000
-84.74821288,-111.08130000
-84.70821288,-111.08130000
-84.66821289,-112.84520000
-84.62821289,-114.60920000
-84.58821289,-116.37320000
-84.54821289,-116.37320000
-84.50821289,-118.13720000
-84.46821289,-118.13720000
-84.42821289,-119.90110000
-84.38821289,-119.90110000
-84.34821289,-121.66510000
-84.30821289,-123.42910000
-84.26821289,-125.19300000
-84.22821289,-125.19300000
-84.18821289,-125.19300000
-84.14821289,-126.95700000
-84.10821289,-128.72100000
-84.06821289,-128.72100000
-84.02821289,-130.48490000
-83.98821289,-130.48490000
-83.94821289,-132.24890000
-83.90821289,-132.24890000
-83.86821289,-132.24890000
-83.82821289,-134.01290000
-83.78821289,-134.01290000
-83.74821289,-135.77680000
-83.70821289,-137.54080000
-83.66821289,-137.54080000
-83.62821289,-137.54080000
-83.58821289,-139.31090000
-83.54821289,-139.31090000
-83.50821289,-139.31090000
-83.46821289,-141.07490000
-83.42821289,-141.07490000
-83.38821289,-141.07490000
-83.34821289,-142.83880000
-83.30821289,-144.60280000
-83.26821289,-144.60280000
-83.22821289,-144.60280000
-83.18821289,-146.36680000
-83.14821289,-146.36680000
-83.10821289,-146.36680000
-83.06821289,-146.36680000
-83.02821290,-148.13070000
-82.98821290,-148.13070000
-82.94821290,-148.13070000
-82.90821290,-149.89470000
-82.86821290,-149.89470000
-82.82821290,-151.65870000
-82.78821290,-151.65870000
-82.74821290,-151.65870000
-82.70821290,-153.42260000
-82.66821290,-153.42260000
-82.62821290,-153.42260000
-82.58821290,-153.42260000
-82.54821290,-155.18660000
-82.50821290,-153.42260000
-82.46821290,-155.18660000
-82.42821290,-155.18660000
-82.38821290,-155.18660000
-82.34821290,-155.18660000
-82.30821290,-155.18660000
-82.26821290,-156.95060000
-82.22821290,-155.18660000
-82.18821290,-158.71460000
-82.14821290,-158.71460000
-82.10821290,-158.71460000
-82.06821290,-158.71460000
-82.02821290,-158.71460000
-81.98821290,-158.71460000
-81.94821290,-160.47850000
-81.90821290,-158.71460000
-81.86821290,-158.71460000
-81.82821290,-160.47850000
-81.78821290,-160.47850000
-81.74821290,-160.47850000
-81.70821290,-160.47850000
-81.66821290,-160.47850000
-81.62821290,-160.47850000
-81.58821290,-160.47850000
-81.54821290,-160.47850000
-81.50821290,-160.47850000
-81.46821290,-160.47850000
-81.42821290,-160.47850000
-81.38821291,-160.47850000
-81.34821291,-160.47850000
-81.30821291,-160.47850000
-81.26821291,-160.47850000
-81.22821291,-160.47850000
-81.18821291,-160.47850000
-81.14821291,-160.47850000
-81.10821291,-160.47850000
-81.06821291,-160.47850000
-81.02821291,-160.47850000
-80.98821291,-160.47850000
-80.94821291,-158.71460000
-80.90821291,-158.71460000
-80.86821291,-158.71460000
-80.82821291,-158.71460000
-80.78821291,-156.95060000
-80.74821291,-158.71460000
-80.70821291,-158.71460000
-80.66821291,-158.71460000
-80.62821291,-155.18660000
-80.58821291,-155.18660000
-80.54821291,-155.18660000
-80.50821291,-155.18660000
-80.46821291,-153.42260000
-80.42821291,-153.42260000
-80.38821291,-153.42260000
-80.34821291,-153.42260000
-80.30821291,-153.42260000
-80.26821291,-153.42260000
-80.22821291,-153.42260000
-80.18821291,-153.42260000
-80.14821291,-151.65870000
-80.10821291,-151.65870000
-80.06821291,-151.65870000
-80.02821291,-149.89470000
-79.98821291,-149.89470000
-79.94821291,-149.89470000
-79.90821291,-148.13070000
-79.86821291,-148.13070000
-79.82821291,-148.13070000
-79.78821291,-146.36680000
-79.74821292,-146.36680000
-79.70821292,-146.36680000
-79.66821292,-144.60280000
-79.62821292,-144.60280000
-79.58821292,-144.60280000
-79.54821292,-142.83880000
-79.50821292,-142.83880000
-79.46821292,-141.07490000
-79.42821292,-141.07490000
-79.38821292,-141.07490000
-79.34821292,-139.31090000
-79.30821292,-139.31090000
-79.26821292,-139.31090000
-79.22821292,-137.54080000
-79.18821292,-137.54080000
-79.14821292,-135.77680000
-79.10821292,-135.77680000
-79.06821292,-134.01290000
-79.02821292,-132.24890000
-78.98821292,-132.24890000
-78.94821292,-132.24890000
-78.90821292,-130.48490000
-78.86821292,-130.48490000
-78.82821292,-130.48490000
-78.78821292,-126.95700000
-78.74821292,-125.19300000
-78.70821292,-125.19300000
-78.66821292,-125.19300000
-78.62821292,-125.19300000
-78.58821292,-123.42910000
-78.54821292,-121.66510000
-78.50821292,-119.90110000
-78.46821292,-119.90110000
-78.42821292,-118.13720000
-78.38821292,-118.13720000
-78.34821292,-116.37320000
-78.30821292,-116.37320000
-78.26821292,-114.60920000
-78.22821292,-112.84520000
-78.18821292,-112.84520000
-78.14821292,-111.08130000
-78.10821293,-111.08130000
-78.06821293,-109.31120000
-78.02821293,-107.54720000
-77.98821293,-105.78330000
-77.94821293,-105.78330000
-77.90821293,-104.01930000
-77.86821293,-104.01930000
-77.82821293,-102.25530000
-77.78821293,-98.72738000
-77.74821293,-102.25530000
-77.70821293,-96.96341000
-77.66821293,-96.96341000
-77.62821293,-96.96341000
-77.58821293,-93.43547000
-77.54821293,-93.43547000
-77.50821293,-91.67150000
-77.46821293,-91.67150000
-77.42821293,-89.90753000
-77.38821293,-88.14356000
-77.34821293,-88.14356000
-77.30821293,-84.61562000
-77.26821293,-82.85165000
-77.22821293,-82.85165000
-77.18821293,-81.08157000
-77.14821293,-81.08157000
-77.10821293,-77.55363000
-77.06821293,-77.55363000
-77.02821293,-75.78967000
-76.98821293,-75.78967000
-76.94821293,-74.02570000
-76.90821293,-72.26173000
-76.86821293,-70.49776000
-76.82821293,-68.73379000
-76.78821293,-68.73379000
-76.74821293,-66.96982000
-76.70821293,-65.20585000
-76.66821293,-63.44188000
-76.62821293,-61.67791000
-76.58821293,-61.67791000
-76.54821293,-59.91394000
-76.50821293,-58.14997000
-76.46821294,-56.38600000
-76.42821294,-56.38600000
-76.38821294,-54.62203000
-76.34821294,-52.85195000
-76.30821294,-51.08798000
-76.26821294,-49.32401000
-76.22821294,-49.32401000
-76.18821294,-47.56004000
-76.14821294,-45.79607000
-76.10821294,-44.03210000
-76.06821294,-42.26814000
-76.02821294,-40.50417000
-75.98821294,-40.50417000
-75.94821294,-38.74020000
-75.90821294,-36.97623000
-75.86821294,-35.21225000
-75.82821294,-33.44828000
-75.78821294,-31.68431000
-75.74821294,-31.68431000
-75.70821294,-28.15638000
-75.66821294,-28.15638000
-75.62821294,-26.39241000
-75.58821294,-24.62233000
-75.54821294,-22.85836000
-75.50821294,-21.09439000
-75.46821294,-19.33042000
-75.42821294,-19.33042000
-75.38821294,-17.56645000
-75.34821294,-15.80248000
-75.30821294,-14.03851000
-75.26821294,-12.27454000
-75.22821294,-12.27454000
-75.18821294,-8.74660500
-75.14821294,-6.98263500
-75.10821294,-5.21866500
-75.06821294,-5.21866500
-75.02821294,-3.45469500
-74.98821294,-1.69072500
-74.94821294,0.07324442
-74.90821294,0.07324442
-74.86821294,1.83721400
-74.82821295,3.60118400
-74.78821295,7.12912400
-74.74821295,7.12912400
-74.70821295,8.89309300
-74.66821295,8.89309300
-74.62821295,10.65706000
-74.58821295,14.18500000
-74.54821295,15.94897000
-74.50821295,15.94897000
-74.46821295,17.71294000
-74.42821295,19.47691000
-74.38821295,21.24088000
-74.34821295,23.00485000
-74.30821295,23.00485000
-74.26821295,24.76882000
-74.22821295,26.53279000
-74.18821295,28.29676000
-74.14821295,30.06684000
-74.10821295,30.06684000
-74.06821295,31.83080000
-74.02821295,33.59477000
-73.98821295,35.35874000
-73.94821295,37.12271000
-73.90821295,37.12271000
-73.86821295,38.88668000
-73.82821295,40.65065000
-73.78821295,42.41463000
-73.74821295,44.17860000
-73.70821295,44.17860000
-73.66821295,45.94257000
-73.62821295,45.94257000
-73.58821295,51.23447000
-73.54821295,51.23447000
-73.50821295,51.23447000
-73.46821295,52.99844000
-73.42821295,54.76241000
-73.38821295,56.52638000
-73.34821295,58.29646000
-73.30821295,58.29646000
-73.26821295,60.06042000
-73.22821295,61.82440000
-73.18821295,63.58836000
-73.14821296,65.35233000
-73.10821296,65.35233000
-73.06821296,67.11631000
-73.02821296,67.11631000
-72.98821296,70.64425000
-72.94821296,72.40822000
-72.90821296,72.40822000
-72.86821296,74.17219000
-72.82821296,74.17219000
-72.78821296,75.93616000
-72.74821296,77.70013000
-72.70821296,77.70013000
-72.66821296,79.46410000
-72.62821296,81.22807000
-72.58821296,81.22807000
-72.54821296,82.99203000
-72.50821296,84.75600000
-72.46821296,84.75600000
-72.42821296,86.52608000
-72.38821296,86.52608000
-72.34821296,88.29005000
-72.30821296,90.05402000
-72.26821296,91.81799000
-72.22821296,91.81799000
-72.18821296,93.58195000
-72.14821296,93.58195000
-72.10821296,95.34592000
-72.06821296,95.34592000
-72.02821296,97.10989000
-71.98821296,98.87386000
-71.94821296,98.87386000
-71.90821296,100.63780000
-71.86821296,100.63780000
-71.82821296,102.40180000
-71.78821296,104.16580000
-71.74821296,105.92970000
-71.70821296,105.92970000
-71.66821296,107.69370000
-71.62821296,107.69370000
-71.58821296,107.69370000
-71.54821296,109.45770000
-71.50821297,109.45770000
-71.46821297,111.22170000
-71.42821297,112.98560000
-71.38821297,112.98560000
-71.34821297,114.75570000
-71.30821297,114.75570000
-71.26821297,114.75570000
-71.22821297,116.51970000
-71.18821297,116.51970000
-71.14821297,114.75570000
-71.10821297,120.04760000
-71.06821297,120.04760000
-71.02821297,120.04760000
-70.98821297,120.04760000
-70.94821297,121.81160000
-70.90821297,121.81160000
-70.86821297,123.57550000
-70.82821297,123.57550000
-70.78821297,123.57550000
-70.74821297,127.10350000
-70.70821297,127.10350000
-70.66821297,127.10350000
-70.62821297,127.10350000
-70.58821297,128.86740000
-70.54821297,128.86740000
-70.50821297,128.86740000
-70.46821297,128.86740000
-70.42821297,130.63140000
-70.38821297,130.63140000
-70.34821297,130.63140000
-70.30821297,132.39540000
-70.26821297,132.39540000
-70.22821297,134.15940000
-70.18821297,134.15940000
-70.14821297,134.15940000
-70.10821297,134.15940000
-70.06821297,135.92330000
-70.02821297,135.92330000
-69.98821297,135.92330000
-69.94821297,135.92330000
-69.90821297,135.92330000
-69.86821298,135.92330000
-69.82821298,137.68730000
-69.78821298,137.68730000
-69.74821298,137.68730000
-69.70821298,137.68730000
-69.66821298,137.68730000
-69.62821298,137.68730000
-69.58821298,137.68730000
-69.54821298,139.45130000
-69.50821298,139.45130000
-69.46821298,139.45130000
-69.42821298,139.45130000
-69.38821298,141.21520000
-69.34821298,141.21520000
-69.30821298,141.21520000
