Time,Channel B
(us),(mV)

-100.10867118,-12.26844000
-100.06867118,-12.26844000
-100.02867118,-7.85851600
-99.98867118,0.96133300
-99.94867118,5.37125700
-99.90867118,5.37125700
-99.86867118,9.78118100
-99.82867118,14.19111000
-99.78867118,18.60103000
-99.74867118,23.01095000
-99.70867118,27.42088000
-99.66867118,31.83080000
-99.62867118,36.24073000
-99.58867118,40.65065000
-99.54867118,45.06058000
-99.50867118,49.47050000
-99.46867118,53.89569000
-99.42867118,58.30561000
-99.38867118,62.71553000
-99.34867118,67.12546000
-99.30867118,71.53539000
-99.26867118,75.94530000
-99.22867118,80.35523000
-99.18867118,84.76515000
-99.14867118,89.17508000
-99.10867118,93.58500000
-99.06867118,93.58500000
-99.02867118,97.99493000
-98.98867118,102.42010000
-98.94867118,111.24000000
-98.90867118,111.24000000
-98.86867118,115.64990000
-98.82867118,120.05980000
-98.78867118,128.87970000
-98.74867118,128.87970000
-98.70867119,133.28960000
-98.66867119,133.28960000
-98.62867119,142.10940000
-98.58867119,146.53460000
-98.54867119,146.53460000
-98.50867119,150.94450000
-98.46867119,159.76440000
-98.42867119,164.17430000
-98.38867119,164.17430000
-98.34867119,164.17430000
-98.30867119,172.99420000
-98.26867119,177.40410000
-98.22867119,181.81400000
-98.18867119,181.81400000
-98.14867119,186.22390000
-98.10867119,190.63390000
-98.06867119,195.05900000
-98.02867119,199.46900000
-97.98867119,199.46900000
-97.94867119,203.87890000
-97.90867119,212.69870000
-97.86867119,212.69870000
-97.82867119,217.10870000
-97.78867119,217.10870000
-97.74867119,221.51860000
-97.70867119,225.92850000
-97.66867119,230.33840000
-97.62867119,234.74840000
-97.58867119,239.15830000
-97.54867119,239.15830000
-97.50867119,243.58350000
-97.46867119,247.99340000
-97.42867119,252.40330000
-97.38867119,252.40330000
-97.34867119,256.81320000
-97.30867119,265.63310000
-97.26867119,265.63310000
-97.22867119,270.04300000
-97.18867119,270.04300000
-97.14867119,274.45290000
-97.10867119,278.86290000
-97.06867120,283.27280000
-97.02867120,283.27280000
-96.98867120,287.69800000
-96.94867120,287.69800000
-96.90867120,292.10790000
-96.86867120,296.51780000
-96.82867120,300.92770000
-96.78867120,305.33770000
-96.74867120,305.33770000
-96.70867120,305.33770000
-96.66867120,309.74760000
-96.62867120,314.15750000
-96.58867120,318.56740000
-96.54867120,318.56740000
-96.50867120,322.97740000
-96.46867120,322.97740000
-96.42867120,327.38730000
-96.38867120,331.79720000
-96.34867120,331.79720000
-96.30867120,336.22240000
-96.26867120,340.63230000
-96.22867120,340.63230000
-96.18867120,340.63230000
-96.14867120,340.63230000
-96.10867120,345.04220000
-96.06867120,349.45220000
-96.02867120,353.86210000
-95.98867120,353.86210000
-95.94867120,358.27200000
-95.90867120,358.27200000
-95.86867120,358.27200000
-95.82867120,362.68190000
-95.78867120,362.68190000
-95.74867120,367.09190000
-95.70867120,371.50180000
-95.66867120,371.50180000
-95.62867120,371.50180000
-95.58867120,375.91170000
-95.54867120,375.91170000
-95.50867120,375.91170000
-95.46867120,375.91170000
-95.42867121,380.32160000
-95.38867121,380.32160000
-95.34867121,384.74680000
-95.30867121,389.15670000
-95.26867121,389.15670000
-95.22867121,389.15670000
-95.18867121,393.56670000
-95.14867121,393.56670000
-95.10867121,393.56670000
-95.06867121,393.56670000
-95.02867121,393.56670000
-94.98867121,393.56670000
-94.94867121,397.97660000
-94.90867121,402.38650000
-94.86867121,402.38650000
-94.82867121,406.79640000
-94.78867121,406.79640000
-94.74867121,406.79640000
-94.70867121,406.79640000
-94.66867121,406.79640000
-94.62867121,406.79640000
-94.58867121,406.79640000
-94.54867121,411.20640000
-94.50867121,411.20640000
-94.46867121,411.20640000
-94.42867121,411.20640000
-94.38867121,411.20640000
-94.34867121,411.20640000
-94.30867121,411.20640000
-94.26867121,411.20640000
-94.22867121,411.20640000
-94.18867121,415.61630000
-94.14867121,411.20640000
-94.10867121,415.61630000
-94.06867121,411.20640000
-94.02867121,415.61630000
-93.98867121,415.61630000
-93.94867121,415.61630000
-93.90867121,415.61630000
-93.86867121,415.61630000
-93.82867121,415.61630000
-93.78867122,415.61630000
-93.74867122,415.61630000
-93.70867122,415.61630000
-93.66867122,415.61630000
-93.62867122,415.61630000
-93.58867122,415.61630000
-93.54867122,415.61630000
-93.50867122,415.61630000
-93.46867122,411.20640000
-93.42867122,415.61630000
-93.38867122,411.20640000
-93.34867122,411.20640000
-93.30867122,411.20640000
-93.26867122,411.20640000
-93.22867122,411.20640000
-93.18867122,411.20640000
-93.14867122,411.20640000
-93.10867122,411.20640000
-93.06867122,411.20640000
-93.02867122,411.20640000
-92.98867122,406.79640000
-92.94867122,406.79640000
-92.90867122,406.79640000
-92.86867122,406.79640000
-92.82867122,402.38650000
-92.78867122,402.38650000
-92.74867122,402.38650000
-92.70867122,397.97660000
-92.66867122,393.56670000
-92.62867122,393.56670000
-92.58867122,393.56670000
-92.54867122,393.56670000
-92.50867122,393.56670000
-92.46867122,393.56670000
-92.42867122,389.15670000
-92.38867122,389.15670000
-92.34867122,389.15670000
-92.30867122,384.74680000
-92.26867122,384.74680000
-92.22867122,380.32160000
-92.18867122,380.32160000
-92.14867123,380.32160000
-92.10867123,375.91170000
-92.06867123,375.91170000
-92.02867123,375.91170000
-91.98867123,375.91170000
-91.94867123,371.50180000
-91.90867123,371.50180000
-91.86867123,367.09190000
-91.82867123,367.09190000
-91.78867123,362.68190000
-91.74867123,358.27200000
-91.70867123,358.27200000
-91.66867123,358.27200000
-91.62867123,353.86210000
-91.58867123,353.86210000
-91.54867123,349.45220000
-91.50867123,345.04220000
-91.46867123,340.63230000
-91.42867123,340.63230000
-91.38867123,340.63230000
-91.34867123,336.22240000
-91.30867123,336.22240000
-91.26867123,331.79720000
-91.22867123,327.38730000
-91.18867123,327.38730000
-91.14867123,322.97740000
-91.10867123,322.97740000
-91.06867123,318.56740000
-91.02867123,318.56740000
-90.98867123,314.15750000
-90.94867123,309.74760000
-90.90867123,305.33770000
-90.86867123,305.33770000
-90.82867123,305.33770000
-90.78867123,300.92770000
-90.74867123,292.10790000
-90.70867123,292.10790000
-90.66867123,287.69800000
-90.62867123,287.69800000
-90.58867123,283.27280000
-90.54867123,283.27280000
-90.50867124,274.45290000
-90.46867124,274.45290000
-90.42867124,270.04300000
-90.38867124,270.04300000
-90.34867124,265.63310000
-90.30867124,261.22310000
-90.26867124,261.22310000
-90.22867124,256.81320000
-90.18867124,252.40330000
-90.14867124,247.99340000
-90.10867124,247.99340000
-90.06867124,239.15830000
-90.02867124,234.74840000
-89.98867124,234.74840000
-89.94867124,230.33840000
-89.90867124,225.92850000
-89.86867124,225.92850000
-89.82867124,217.10870000
-89.78867124,217.10870000
-89.74867124,212.69870000
-89.70867124,208.28880000
-89.66867124,203.87890000
-89.62867124,199.46900000
-89.58867124,199.46900000
-89.54867124,195.05900000
-89.50867124,195.05900000
-89.46867124,186.22390000
-89.42867124,181.81400000
-89.38867124,181.81400000
-89.34867124,177.40410000
-89.30867124,172.99420000
-89.26867124,168.58420000
-89.22867124,164.17430000
-89.18867124,159.76440000
-89.14867124,159.76440000
-89.10867124,150.94450000
-89.06867124,146.53460000
-89.02867124,146.53460000
-88.98867124,142.10940000
-88.94867124,137.69950000
-88.90867124,128.87970000
-88.86867125,128.87970000
-88.82867125,124.46970000
-88.78867125,124.46970000
-88.74867125,111.24000000
-88.70867125,111.24000000
-88.66867125,106.83000000
-88.62867125,106.83000000
-88.58867125,97.99493000
-88.54867125,93.58500000
-88.50867125,93.58500000
-88.46867125,89.17508000
-88.42867125,84.76515000
-88.38867125,75.94530000
-88.34867125,75.94530000
-88.30867125,71.53539000
-88.26867125,67.12546000
-88.22867125,62.71553000
-88.18867125,58.30561000
-88.14867125,53.89569000
-88.10867125,49.47050000
-88.06867125,45.06058000
-88.02867125,40.65065000
-87.98867125,36.24073000
-87.94867125,36.24073000
-87.90867125,27.42088000
-87.86867125,23.01095000
-87.82867125,18.60103000
-87.78867125,18.60103000
-87.74867125,9.78118100
-87.70867125,5.37125700
-87.66867125,0.96133300
-87.62867125,0.96133300
-87.58867125,-7.85851600
-87.54867125,-12.26844000
-87.50867125,-12.26844000
-87.46867125,-16.67836000
-87.42867125,-25.49821000
-87.38867125,-29.90814000
-87.34867125,-34.31806000
-87.30867125,-34.31806000
-87.26867125,-43.15317000
-87.22867125,-47.56310000
-87.18867126,-47.56310000
-87.14867126,-51.97302000
-87.10867126,-56.38294000
-87.06867126,-60.79287000
-87.02867126,-65.20279000
-86.98867126,-69.61272000
-86.94867126,-74.02264000
-86.90867126,-78.43256000
-86.86867126,-82.84248000
-86.82867126,-87.25241000
-86.78867126,-87.25241000
-86.74867126,-96.08752000
-86.70867126,-100.49750000
-86.66867126,-104.90740000
-86.62867126,-104.90740000
-86.58867126,-113.72720000
-86.54867126,-118.13710000
-86.50867126,-122.54710000
-86.46867126,-122.54710000
-86.42867126,-131.36690000
-86.38867126,-135.79210000
-86.34867126,-135.79210000
-86.30867126,-140.20200000
-86.26867126,-149.02190000
-86.22867126,-149.02190000
-86.18867126,-153.43180000
-86.14867126,-157.84170000
-86.10867126,-162.25160000
-86.06867126,-166.66160000
-86.02867126,-171.07150000
-85.98867126,-171.07150000
-85.94867126,-179.89130000
-85.90867126,-184.31650000
-85.86867126,-184.31650000
-85.82867126,-188.72640000
-85.78867126,-193.13640000
-85.74867126,-197.54630000
-85.70867126,-201.95620000
-85.66867126,-206.36610000
-85.62867126,-206.36610000
-85.58867126,-210.77610000
-85.54867127,-215.18600000
-85.50867127,-219.59590000
-85.46867127,-224.00580000
-85.42867127,-228.41580000
-85.38867127,-228.41580000
-85.34867127,-232.84100000
-85.30867127,-237.25090000
-85.26867127,-241.66080000
-85.22867127,-241.66080000
-85.18867127,-246.07070000
-85.14867127,-254.89060000
-85.10867127,-259.30050000
-85.06867127,-259.30050000
-85.02867127,-263.71040000
-84.98867127,-263.71040000
-84.94867127,-268.12040000
-84.90867127,-272.53030000
-84.86867127,-276.95550000
-84.82867127,-276.95550000
-84.78867127,-281.36540000
-84.74867127,-281.36540000
-84.70867127,-294.59520000
-84.66867127,-294.59520000
-84.62867127,-294.59520000
-84.58867127,-299.00510000
-84.54867127,-299.00510000
-84.50867127,-303.41500000
-84.46867127,-312.23490000
-84.42867127,-312.23490000
-84.38867127,-312.23490000
-84.34867127,-316.64480000
-84.30867127,-321.05470000
-84.26867127,-325.47990000
-84.22867127,-325.47990000
-84.18867127,-329.88980000
-84.14867127,-329.88980000
-84.10867127,-334.29970000
-84.06867127,-338.70970000
-84.02867127,-338.70970000
-83.98867127,-343.11960000
-83.94867127,-347.52950000
-83.90867128,-347.52950000
-83.86867128,-347.52950000
-83.82867128,-351.93940000
-83.78867128,-356.34940000
-83.74867128,-360.75930000
-83.70867128,-360.75930000
-83.66867128,-360.75930000
-83.62867128,-365.16920000
-83.58867128,-365.16920000
-83.54867128,-369.57910000
-83.50867128,-369.57910000
-83.46867128,-369.57910000
-83.42867128,-374.00430000
-83.38867128,-378.41420000
-83.34867128,-378.41420000
-83.30867128,-382.82420000
-83.26867128,-382.82420000
-83.22867128,-387.23410000
-83.18867128,-387.23410000
-83.14867128,-391.64400000
-83.10867128,-396.05400000
-83.06867128,-396.05400000
-83.02867128,-396.05400000
-82.98867128,-400.46390000
-82.94867128,-400.46390000
-82.90867128,-400.46390000
-82.86867128,-400.46390000
-82.82867128,-404.87380000
-82.78867128,-404.87380000
-82.74867128,-404.87380000
-82.70867128,-409.28370000
-82.66867128,-413.69360000
-82.62867128,-413.69360000
-82.58867128,-418.11880000
-82.54867128,-413.69360000
-82.50867128,-418.11880000
-82.46867128,-418.11880000
-82.42867128,-418.11880000
-82.38867128,-418.11880000
-82.34867128,-418.11880000
-82.30867128,-422.52870000
-82.26867129,-422.52870000
-82.22867129,-422.52870000
-82.18867129,-422.52870000
-82.14867129,-422.52870000
-82.10867129,-426.93870000
-82.06867129,-426.93870000
-82.02867129,-431.34860000
-81.98867129,-431.34860000
-81.94867129,-431.34860000
-81.90867129,-431.34860000
-81.86867129,-431.34860000
-81.82867129,-431.34860000
-81.78867129,-431.34860000
-81.74867129,-431.34860000
-81.70867129,-431.34860000
-81.66867129,-431.34860000
-81.62867129,-431.34860000
-81.58867129,-435.75850000
-81.54867129,-435.75850000
-81.50867129,-435.75850000
-81.46867129,-435.75850000
-81.42867129,-435.75850000
-81.38867129,-435.75850000
-81.34867129,-435.75850000
-81.30867129,-435.75850000
-81.26867129,-435.75850000
-81.22867129,-435.75850000
-81.18867129,-435.75850000
-81.14867129,-435.75850000
-81.10867129,-435.75850000
-81.06867129,-435.75850000
-81.02867129,-435.75850000
-80.98867129,-435.75850000
-80.94867129,-435.75850000
-80.90867129,-431.34860000
-80.86867129,-435.75850000
-80.82867129,-431.34860000
-80.78867129,-431.34860000
-80.74867129,-431.34860000
-80.70867129,-431.34860000
-80.66867129,-431.34860000
-80.62867130,-431.34860000
-80.58867130,-431.34860000
-80.54867130,-426.93870000
-80.50867130,-426.93870000
-80.46867130,-422.52870000
-80.42867130,-422.52870000
-80.38867130,-422.52870000
-80.34867130,-422.52870000
-80.30867130,-422.52870000
-80.26867130,-422.52870000
-80.22867130,-418.11880000
-80.18867130,-418.11880000
-80.14867130,-418.11880000
-80.10867130,-418.11880000
-80.06867130,-418.11880000
-80.02867130,-413.69360000
-79.98867130,-413.69360000
-79.94867130,-409.28370000
-79.90867130,-409.28370000
-79.86867130,-404.87380000
-79.82867130,-404.87380000
-79.78867130,-404.87380000
-79.74867130,-404.87380000
-79.70867130,-400.46390000
-79.66867130,-400.46390000
-79.62867130,-400.46390000
-79.58867130,-396.05400000
-79.54867130,-396.05400000
-79.50867130,-391.64400000
-79.46867130,-387.23410000
-79.42867130,-387.23410000
-79.38867130,-387.23410000
-79.34867130,-382.82420000
-79.30867130,-382.82420000
-79.26867130,-382.82420000
-79.22867130,-378.41420000
-79.18867130,-378.41420000
-79.14867130,-374.00430000
-79.10867130,-369.57910000
-79.06867130,-369.57910000
-79.02867130,-365.16920000
-78.98867131,-365.16920000
-78.94867131,-360.75930000
-78.90867131,-360.75930000
-78.86867131,-360.75930000
-78.82867131,-356.34940000
-78.78867131,-351.93940000
-78.74867131,-347.52950000
-78.70867131,-347.52950000
-78.66867131,-347.52950000
-78.62867131,-343.11960000
-78.58867131,-338.70970000
-78.54867131,-334.29970000
-78.50867131,-334.29970000
-78.46867131,-329.88980000
-78.42867131,-329.88980000
-78.38867131,-325.47990000
-78.34867131,-325.47990000
-78.30867131,-321.05470000
-78.26867131,-316.64480000
-78.22867131,-316.64480000
-78.18867131,-312.23490000
-78.14867131,-312.23490000
-78.10867131,-303.41500000
-78.06867131,-299.00510000
-78.02867131,-299.00510000
-77.98867131,-294.59520000
-77.94867131,-294.59520000
-77.90867131,-290.18520000
-77.86867131,-285.77530000
-77.82867131,-281.36540000
-77.78867131,-276.95550000
-77.74867131,-276.95550000
-77.70867131,-272.53030000
-77.66867131,-272.53030000
-77.62867131,-263.71040000
-77.58867131,-259.30050000
-77.54867131,-259.30050000
-77.50867131,-259.30050000
-77.46867131,-254.89060000
-77.42867131,-246.07070000
-77.38867131,-246.07070000
-77.34867132,-241.66080000
-77.30867132,-237.25090000
-77.26867132,-237.25090000
-77.22867132,-228.41580000
-77.18867132,-224.00580000
-77.14867132,-224.00580000
-77.10867132,-219.59590000
-77.06867132,-215.18600000
-77.02867132,-210.77610000
-76.98867132,-206.36610000
-76.94867132,-206.36610000
-76.90867132,-201.95620000
-76.86867132,-197.54630000
-76.82867132,-193.13640000
-76.78867132,-188.72640000
-76.74867132,-184.31650000
-76.70867132,-179.89130000
-76.66867132,-175.48140000
-76.62867132,-171.07150000
-76.58867132,-171.07150000
-76.54867132,-166.66160000
-76.50867132,-157.84170000
-76.46867132,-157.84170000
-76.42867132,-153.43180000
-76.38867132,-149.02190000
-76.34867132,-144.61190000
-76.30867132,-140.20200000
-76.26867132,-135.79210000
-76.22867132,-135.79210000
-76.18867132,-131.36690000
-76.14867132,-122.54710000
-76.10867132,-122.54710000
-76.06867132,-118.13710000
-76.02867132,-113.72720000
-75.98867132,-104.90740000
-75.94867132,-100.49750000
-75.90867132,-100.49750000
-75.86867132,-96.08752000
-75.82867132,-87.25241000
-75.78867132,-87.25241000
-75.74867132,-82.84248000
-75.70867133,-82.84248000
-75.66867133,-74.02264000
-75.62867133,-69.61272000
-75.58867133,-65.20279000
-75.54867133,-65.20279000
-75.50867133,-60.79287000
-75.46867133,-51.97302000
-75.42867133,-47.56310000
-75.38867133,-47.56310000
-75.34867133,-43.15317000
-75.30867133,-34.31806000
-75.26867133,-34.31806000
-75.22867133,-29.90814000
-75.18867133,-21.08829000
-75.14867133,-16.67836000
-75.10867133,-16.67836000
-75.06867133,-12.26844000
-75.02867133,-7.85851600
-74.98867133,0.96133300
-74.94867133,5.37125700
-74.90867133,5.37125700
-74.86867133,9.78118100
-74.82867133,14.19111000
-74.78867133,18.60103000
-74.74867133,23.01095000
-74.70867133,27.42088000
-74.66867133,31.83080000
-74.62867133,40.65065000
-74.58867133,40.65065000
-74.54867133,45.06058000
-74.50867133,49.47050000
-74.46867133,53.89569000
-74.42867133,58.30561000
-74.38867133,62.71553000
-74.34867133,67.12546000
-74.30867133,71.53539000
-74.26867133,75.94530000
-74.22867133,80.35523000
-74.18867133,84.76515000
-74.14867133,89.17508000
-74.10867133,93.58500000
-74.06867133,93.58500000
-74.02867134,97.99493000
-73.98867134,106.83000000
-73.94867134,106.83000000
-73.90867134,111.24000000
-73.86867134,115.64990000
-73.82867134,124.46970000
-73.78867134,124.46970000
-73.74867134,128.87970000
-73.70867134,128.87970000
-73.66867134,137.69950000
-73.62867134,142.10940000
-73.58867134,146.53460000
-73.54867134,146.53460000
-73.50867134,150.94450000
-73.46867134,159.76440000
-73.42867134,159.76440000
-73.38867134,164.17430000
-73.34867134,168.58420000
-73.30867134,168.58420000
-73.26867134,177.40410000
-73.22867134,181.81400000
-73.18867134,181.81400000
-73.14867134,186.22390000
-73.10867134,195.05900000
-73.06867134,195.05900000
-73.02867134,199.46900000
-72.98867134,199.46900000
-72.94867134,203.87890000
-72.90867134,212.69870000
-72.86867134,212.69870000
-72.82867134,217.10870000
-72.78867134,221.51860000
-72.74867134,221.51860000
-72.70867134,230.33840000
-72.66867134,230.33840000
-72.62867134,234.74840000
-72.58867134,239.15830000
-72.54867134,239.15830000
-72.50867134,247.99340000
-72.46867134,247.99340000
-72.42867134,252.40330000
-72.38867135,252.40330000
-72.34867135,261.22310000
-72.30867135,261.22310000
-72.26867135,270.04300000
-72.22867135,270.04300000
-72.18867135,270.04300000
-72.14867135,274.45290000
-72.10867135,278.86290000
-72.06867135,283.27280000
-72.02867135,287.69800000
-71.98867135,287.69800000
-71.94867135,287.69800000
-71.90867135,296.51780000
-71.86867135,296.51780000
-71.82867135,300.92770000
-71.78867135,300.92770000
-71.74867135,305.33770000
-71.70867135,305.33770000
-71.66867135,309.74760000
-71.62867135,314.15750000
-71.58867135,318.56740000
-71.54867135,318.56740000
-71.50867135,322.97740000
-71.46867135,322.97740000
-71.42867135,327.38730000
-71.38867135,327.38730000
-71.34867135,336.22240000
-71.30867135,336.22240000
-71.26867135,336.22240000
-71.22867135,340.63230000
-71.18867135,340.63230000
-71.14867135,345.04220000
-71.10867135,345.04220000
-71.06867135,349.45220000
-71.02867135,353.86210000
-70.98867135,353.86210000
-70.94867135,358.27200000
-70.90867135,358.27200000
-70.86867135,358.27200000
-70.82867135,362.68190000
-70.78867135,362.68190000
-70.74867136,371.50180000
-70.70867136,371.50180000
-70.66867136,371.50180000
-70.62867136,375.91170000
-70.58867136,375.91170000
-70.54867136,375.91170000
-70.50867136,375.91170000
-70.46867136,380.32160000
-70.42867136,380.32160000
-70.38867136,380.32160000
-70.34867136,389.15670000
-70.30867136,389.15670000
-70.26867136,389.15670000
-70.22867136,389.15670000
-70.18867136,393.56670000
-70.14867136,393.56670000
-70.10867136,393.56670000
-70.06867136,393.56670000
-70.02867136,393.56670000
-69.98867136,397.97660000
-69.94867136,397.97660000
-69.90867136,397.97660000
-69.86867136,402.38650000
-69.82867136,402.38650000
-69.78867136,402.38650000
-69.74867136,406.79640000
-69.70867136,406.79640000
