Time,Channel B
(us),(mV)

-100.10008555,-6.98263500
-100.06008555,-6.98263500
-100.02008555,-5.21866500
-99.98008555,-1.69072500
-99.94008555,0.07324442
-99.90008555,1.83721400
-99.86008555,3.60118400
-99.82008555,5.36515400
-99.78008555,7.12912400
-99.74008555,8.89309300
-99.70008555,10.65706000
-99.66008555,12.42103000
-99.62008555,14.18500000
-99.58008555,15.94897000
-99.54008555,17.71294000
-99.50008555,21.24088000
-99.46008555,23.00485000
-99.42008555,23.00485000
-99.38008555,24.76882000
-99.34008555,28.29676000
-99.30008555,30.06684000
-99.26008555,30.06684000
-99.22008555,31.83080000
-99.18008555,35.35874000
-99.14008555,37.12271000
-99.10008555,38.88668000
-99.06008555,40.65065000
-99.02008555,42.41463000
-98.98008555,44.17860000
-98.94008555,45.94257000
-98.90008555,47.70654000
-98.86008555,49.47050000
-98.82008555,51.23447000
-98.78008555,52.99844000
-98.74008555,54.76241000
-98.70008556,56.52638000
-98.66008556,58.29646000
-98.62008556,60.06042000
-98.58008556,61.82440000
-98.54008556,63.58836000
-98.50008556,65.35233000
-98.46008556,65.35233000
-98.42008556,68.88028000
-98.38008556,70.64425000
-98.34008556,72.40822000
-98.30008556,72.40822000
-98.26008556,75.93616000
-98.22008556,77.70013000
-98.18008556,79.46410000
-98.14008556,79.46410000
-98.10008556,81.22807000
-98.06008556,84.75600000
-98.02008556,84.75600000
-97.98008556,86.52608000
-97.94008556,88.29005000
-97.90008556,90.05402000
-97.86008556,91.81799000
-97.82008556,93.58195000
-97.78008556,95.34592000
-97.74008556,95.34592000
-97.70008556,98.87386000
-97.66008556,100.63780000
-97.62008556,100.63780000
-97.58008556,102.40180000
-97.54008556,105.92970000
-97.50008556,105.92970000
-97.46008556,107.69370000
-97.42008556,107.69370000
-97.38008556,109.45770000
-97.34008556,112.98560000
-97.30008556,112.98560000
-97.26008556,114.75570000
-97.22008556,116.51970000
-97.18008556,116.51970000
-97.14008556,118.28360000
-97.10008556,120.04760000
-97.06008557,121.81160000
-97.02008557,121.81160000
-96.98008557,123.57550000
-96.94008557,127.10350000
-96.90008557,127.10350000
-96.86008557,128.86740000
-96.82008557,128.86740000
-96.78008557,130.63140000
-96.74008557,132.39540000
-96.70008557,134.15940000
-96.66008557,135.92330000
-96.62008557,135.92330000
-96.58008557,135.92330000
-96.54008557,137.68730000
-96.50008557,139.45130000
-96.46008557,141.21520000
-96.42008557,142.98530000
-96.38008557,142.98530000
-96.34008557,142.98530000
-96.30008557,144.74930000
-96.26008557,146.51330000
-96.22008557,148.27720000
-96.18008557,148.27720000
-96.14008557,150.04120000
-96.10008557,150.04120000
-96.06008557,151.80520000
-96.02008557,151.80520000
-95.98008557,151.80520000
-95.94008557,153.56910000
-95.90008557,155.33310000
-95.86008557,155.33310000
-95.82008557,157.09710000
-95.78008557,157.09710000
-95.74008557,158.86110000
-95.70008557,160.62500000
-95.66008557,162.38900000
-95.62008557,162.38900000
-95.58008557,164.15300000
-95.54008557,162.38900000
-95.50008557,162.38900000
-95.46008557,164.15300000
-95.42008558,164.15300000
-95.38008558,165.91690000
-95.34008558,167.68090000
-95.30008558,167.68090000
-95.26008558,167.68090000
-95.22008558,169.44490000
-95.18008558,169.44490000
-95.14008558,171.21490000
-95.10008558,171.21490000
-95.06008558,171.21490000
-95.02008558,171.21490000
-94.98008558,171.21490000
-94.94008558,172.97890000
-94.90008558,172.97890000
-94.86008558,172.97890000
-94.82008558,174.74290000
-94.78008558,176.50690000
-94.74008558,176.50690000
-94.70008558,176.50690000
-94.66008558,176.50690000
-94.62008558,176.50690000
-94.58008558,178.27080000
-94.54008558,178.27080000
-94.50008558,178.27080000
-94.46008558,178.27080000
-94.42008558,178.27080000
-94.38008558,178.27080000
-94.34008558,178.27080000
-94.30008558,178.27080000
-94.26008558,180.03480000
-94.22008558,180.03480000
-94.18008558,180.03480000
-94.14008558,180.03480000
-94.10008558,180.03480000
-94.06008558,180.03480000
-94.02008558,180.03480000
-93.98008558,181.79880000
-93.94008558,180.03480000
-93.90008558,181.79880000
-93.86008558,180.03480000
-93.82008558,181.79880000
-93.78008559,180.03480000
-93.74008559,181.79880000
-93.70008559,181.79880000
-93.66008559,180.03480000
-93.62008559,181.79880000
-93.58008559,180.03480000
-93.54008559,180.03480000
-93.50008559,180.03480000
-93.46008559,180.03480000
-93.42008559,180.03480000
-93.38008559,180.03480000
-93.34008559,180.03480000
-93.30008559,178.27080000
-93.26008559,178.27080000
-93.22008559,180.03480000
-93.18008559,178.27080000
-93.14008559,178.27080000
-93.10008559,178.27080000
-93.06008559,178.27080000
-93.02008559,178.27080000
-92.98008559,178.27080000
-92.94008559,176.50690000
-92.90008559,178.27080000
-92.86008559,176.50690000
-92.82008559,176.50690000
-92.78008559,176.50690000
-92.74008559,174.74290000
-92.70008559,174.74290000
-92.66008559,172.97890000
-92.62008559,172.97890000
-92.58008559,172.97890000
-92.54008559,172.97890000
-92.50008559,171.21490000
-92.46008559,171.21490000
-92.42008559,171.21490000
-92.38008559,169.44490000
-92.34008559,169.44490000
-92.30008559,169.44490000
-92.26008559,167.68090000
-92.22008559,165.91690000
-92.18008559,165.91690000
-92.14008560,165.91690000
-92.10008560,164.15300000
-92.06008560,164.15300000
-92.02008560,164.15300000
-91.98008560,162.38900000
-91.94008560,162.38900000
-91.90008560,162.38900000
-91.86008560,160.62500000
-91.82008560,158.86110000
-91.78008560,157.09710000
-91.74008560,157.09710000
-91.70008560,157.09710000
-91.66008560,155.33310000
-91.62008560,155.33310000
-91.58008560,153.56910000
-91.54008560,151.80520000
-91.50008560,150.04120000
-91.46008560,150.04120000
-91.42008560,150.04120000
-91.38008560,148.27720000
-91.34008560,148.27720000
-91.30008560,146.51330000
-91.26008560,144.74930000
-91.22008560,142.98530000
-91.18008560,142.98530000
-91.14008560,142.98530000
-91.10008560,141.21520000
-91.06008560,139.45130000
-91.02008560,137.68730000
-90.98008560,135.92330000
-90.94008560,135.92330000
-90.90008560,134.15940000
-90.86008560,134.15940000
-90.82008560,132.39540000
-90.78008560,132.39540000
-90.74008560,128.86740000
-90.70008560,128.86740000
-90.66008560,127.10350000
-90.62008560,127.10350000
-90.58008560,123.57550000
-90.54008560,121.81160000
-90.50008561,121.81160000
-90.46008561,120.04760000
-90.42008561,120.04760000
-90.38008561,116.51970000
-90.34008561,114.75570000
-90.30008561,114.75570000
-90.26008561,114.75570000
-90.22008561,111.22170000
-90.18008561,109.45770000
-90.14008561,109.45770000
-90.10008561,107.69370000
-90.06008561,105.92970000
-90.02008561,104.16580000
-89.98008561,104.16580000
-89.94008561,100.63780000
-89.90008561,100.63780000
-89.86008561,98.87386000
-89.82008561,95.34592000
-89.78008561,93.58195000
-89.74008561,93.58195000
-89.70008561,91.81799000
-89.66008561,90.05402000
-89.62008561,88.29005000
-89.58008561,86.52608000
-89.54008561,86.52608000
-89.50008561,84.75600000
-89.46008561,81.22807000
-89.42008561,81.22807000
-89.38008561,79.46410000
-89.34008561,77.70013000
-89.30008561,75.93616000
-89.26008561,74.17219000
-89.22008561,72.40822000
-89.18008561,70.64425000
-89.14008561,68.88028000
-89.10008561,67.11631000
-89.06008561,65.35233000
-89.02008561,63.58836000
-88.98008561,61.82440000
-88.94008561,58.29646000
-88.90008561,58.29646000
-88.86008562,56.52638000
-88.82008562,54.76241000
-88.78008562,52.99844000
-88.74008562,51.23447000
-88.70008562,49.47050000
-88.66008562,47.70654000
-88.62008562,44.17860000
-88.58008562,44.17860000
-88.54008562,42.41463000
-88.50008562,40.65065000
-88.46008562,38.88668000
-88.42008562,37.12271000
-88.38008562,35.35874000
-88.34008562,33.59477000
-88.30008562,31.83080000
-88.26008562,30.06684000
-88.22008562,28.29676000
-88.18008562,26.53279000
-88.14008562,24.76882000
-88.10008562,21.24088000
-88.06008562,21.24088000
-88.02008562,17.71294000
-87.98008562,15.94897000
-87.94008562,15.94897000
-87.90008562,14.18500000
-87.86008562,10.65706000
-87.82008562,8.89309300
-87.78008562,7.12912400
-87.74008562,5.36515400
-87.70008562,3.60118400
-87.66008562,1.83721400
-87.62008562,0.07324442
-87.58008562,-1.69072500
-87.54008562,-5.21866500
-87.50008562,-5.21866500
-87.46008562,-5.21866500
-87.42008562,-8.74660500
-87.38008562,-12.27454000
-87.34008562,-12.27454000
-87.30008562,-14.03851000
-87.26008562,-17.56645000
-87.22008563,-19.33042000
-87.18008563,-21.09439000
-87.14008563,-22.85836000
-87.10008563,-26.39241000
-87.06008563,-26.39241000
-87.02008563,-28.15638000
-86.98008563,-29.92035000
-86.94008563,-31.68431000
-86.90008563,-33.44828000
-86.86008563,-35.21225000
-86.82008563,-36.97623000
-86.78008563,-38.74020000
-86.74008563,-40.50417000
-86.70008563,-42.26814000
-86.66008563,-45.79607000
-86.62008563,-47.56004000
-86.58008563,-49.32401000
-86.54008563,-49.32401000
-86.50008563,-52.85195000
-86.46008563,-54.62203000
-86.42008563,-54.62203000
-86.38008563,-56.38600000
-86.34008563,-58.14997000
-86.30008563,-61.67791000
-86.26008563,-61.67791000
-86.22008563,-63.44188000
-86.18008563,-66.96982000
-86.14008563,-68.73379000
-86.10008563,-68.73379000
-86.06008563,-70.49776000
-86.02008563,-74.02570000
-85.98008563,-75.78967000
-85.94008563,-77.55363000
-85.90008563,-77.55363000
-85.86008563,-81.08157000
-85.82008563,-82.85165000
-85.78008563,-82.85165000
-85.74008563,-84.61562000
-85.70008563,-88.14356000
-85.66008563,-88.14356000
-85.62008563,-89.90753000
-85.58008563,-91.67150000
-85.54008564,-93.43547000
-85.50008564,-95.19944000
-85.46008564,-96.96341000
-85.42008564,-96.96341000
-85.38008564,-98.72738000
-85.34008564,-102.25530000
-85.30008564,-104.01930000
-85.26008564,-104.01930000
-85.22008564,-105.78330000
-85.18008564,-107.54720000
-85.14008564,-109.31120000
-85.10008564,-111.08130000
-85.06008564,-111.08130000
-85.02008564,-112.84520000
-84.98008564,-116.37320000
-84.94008564,-118.13720000
-84.90008564,-118.13720000
-84.86008564,-119.90110000
-84.82008564,-119.90110000
-84.78008564,-123.42910000
-84.74008564,-125.19300000
-84.70008564,-125.19300000
-84.66008564,-126.95700000
-84.62008564,-130.48490000
-84.58008564,-130.48490000
-84.54008564,-132.24890000
-84.50008564,-132.24890000
-84.46008564,-134.01290000
-84.42008564,-135.77680000
-84.38008564,-137.54080000
-84.34008564,-137.54080000
-84.30008564,-139.31090000
-84.26008564,-141.07490000
-84.22008564,-141.07490000
-84.18008564,-142.83880000
-84.14008564,-144.60280000
-84.10008564,-146.36680000
-84.06008564,-146.36680000
-84.02008564,-146.36680000
-83.98008564,-148.13070000
-83.94008564,-149.89470000
-83.90008565,-151.65870000
-83.86008565,-153.42260000
-83.82008565,-153.42260000
-83.78008565,-155.18660000
-83.74008565,-155.18660000
-83.70008565,-156.95060000
-83.66008565,-158.71460000
-83.62008565,-160.47850000
-83.58008565,-160.47850000
-83.54008565,-160.47850000
-83.50008565,-162.24250000
-83.46008565,-162.24250000
-83.42008565,-164.00650000
-83.38008565,-165.77040000
-83.34008565,-165.77040000
-83.30008565,-167.54050000
-83.26008565,-167.54050000
-83.22008565,-167.54050000
-83.18008565,-169.30450000
-83.14008565,-171.06850000
-83.10008565,-171.06850000
-83.06008565,-172.83240000
-83.02008565,-172.83240000
-82.98008565,-174.59640000
-82.94008565,-174.59640000
-82.90008565,-174.59640000
-82.86008565,-176.36040000
-82.82008565,-176.36040000
-82.78008565,-176.36040000
-82.74008565,-178.12430000
-82.70008565,-179.88830000
-82.66008565,-179.88830000
-82.62008565,-179.88830000
-82.58008565,-181.65230000
-82.54008565,-181.65230000
-82.50008565,-181.65230000
-82.46008565,-181.65230000
-82.42008565,-183.41620000
-82.38008565,-183.41620000
-82.34008565,-183.41620000
-82.30008565,-183.41620000
-82.26008566,-183.41620000
-82.22008566,-186.94420000
-82.18008566,-186.94420000
-82.14008566,-186.94420000
-82.10008566,-186.94420000
-82.06008566,-186.94420000
-82.02008566,-188.70810000
-81.98008566,-186.94420000
-81.94008566,-188.70810000
-81.90008566,-188.70810000
-81.86008566,-188.70810000
-81.82008566,-188.70810000
-81.78008566,-188.70810000
-81.74008566,-188.70810000
-81.70008566,-188.70810000
-81.66008566,-188.70810000
-81.62008566,-188.70810000
-81.58008566,-188.70810000
-81.54008566,-188.70810000
-81.50008566,-190.47210000
-81.46008566,-190.47210000
-81.42008566,-190.47210000
-81.38008566,-190.47210000
-81.34008566,-190.47210000
-81.30008566,-190.47210000
-81.26008566,-190.47210000
-81.22008566,-190.47210000
-81.18008566,-190.47210000
-81.14008566,-190.47210000
-81.10008566,-190.47210000
-81.06008566,-190.47210000
-81.02008566,-188.70810000
-80.98008566,-188.70810000
-80.94008566,-188.70810000
-80.90008566,-188.70810000
-80.86008566,-188.70810000
-80.82008566,-188.70810000
-80.78008566,-188.70810000
-80.74008566,-186.94420000
-80.70008566,-188.70810000
-80.66008566,-188.70810000
-80.62008567,-188.70810000
-80.58008567,-186.94420000
-80.54008567,-186.94420000
-80.50008567,-186.94420000
-80.46008567,-186.94420000
-80.42008567,-186.94420000
-80.38008567,-186.94420000
-80.34008567,-185.18020000
-80.30008567,-183.41620000
-80.26008567,-183.41620000
-80.22008567,-183.41620000
-80.18008567,-183.41620000
-80.14008567,-181.65230000
-80.10008567,-181.65230000
-80.06008567,-181.65230000
-80.02008567,-181.65230000
-79.98008567,-181.65230000
-79.94008567,-179.88830000
-79.90008567,-179.88830000
-79.86008567,-179.88830000
-79.82008567,-178.12430000
-79.78008567,-176.36040000
-79.74008567,-176.36040000
-79.70008567,-174.59640000
-79.66008567,-174.59640000
-79.62008567,-174.59640000
-79.58008567,-174.59640000
-79.54008567,-172.83240000
-79.50008567,-172.83240000
-79.46008567,-172.83240000
-79.42008567,-169.30450000
-79.38008567,-169.30450000
-79.34008567,-169.30450000
-79.30008567,-167.54050000
-79.26008567,-167.54050000
-79.22008567,-165.77040000
-79.18008567,-165.77040000
-79.14008567,-165.77040000
-79.10008567,-164.00650000
-79.06008567,-162.24250000
-79.02008567,-160.47850000
-78.98008568,-160.47850000
-78.94008568,-160.47850000
-78.90008568,-158.71460000
-78.86008568,-158.71460000
-78.82008568,-155.18660000
-78.78008568,-155.18660000
-78.74008568,-153.42260000
-78.70008568,-153.42260000
-78.66008568,-151.65870000
-78.62008568,-149.89470000
-78.58008568,-148.13070000
-78.54008568,-148.13070000
-78.50008568,-146.36680000
-78.46008568,-146.36680000
-78.42008568,-144.60280000
-78.38008568,-144.60280000
-78.34008568,-141.07490000
-78.30008568,-141.07490000
-78.26008568,-139.31090000
-78.22008568,-139.31090000
-78.18008568,-137.54080000
-78.14008568,-135.77680000
-78.10008568,-134.01290000
-78.06008568,-132.24890000
-78.02008568,-132.24890000
-77.98008568,-130.48490000
-77.94008568,-128.72100000
-77.90008568,-126.95700000
-77.86008568,-126.95700000
-77.82008568,-125.19300000
-77.78008568,-123.42910000
-77.74008568,-121.66510000
-77.70008568,-119.90110000
-77.66008568,-118.13720000
-77.62008568,-118.13720000
-77.58008568,-116.37320000
-77.54008568,-114.60920000
-77.50008568,-112.84520000
-77.46008568,-111.08130000
-77.42008568,-109.31120000
-77.38008568,-109.31120000
-77.34008569,-105.78330000
-77.30008569,-104.01930000
-77.26008569,-104.01930000
-77.22008569,-102.25530000
-77.18008569,-98.72738000
-77.14008569,-98.72738000
-77.10008569,-96.96341000
-77.06008569,-95.19944000
-77.02008569,-93.43547000
-76.98008569,-91.67150000
-76.94008569,-89.90753000
-76.90008569,-88.14356000
-76.86008569,-88.14356000
-76.82008569,-84.61562000
-76.78008569,-82.85165000
-76.74008569,-82.85165000
-76.70008569,-81.08157000
-76.66008569,-79.31760000
-76.62008569,-75.78967000
-76.58008569,-75.78967000
-76.54008569,-74.02570000
-76.50008569,-70.49776000
-76.46008569,-70.49776000
-76.42008569,-68.73379000
-76.38008569,-66.96982000
-76.34008569,-65.20585000
-76.30008569,-61.67791000
-76.26008569,-61.67791000
-76.22008569,-59.91394000
-76.18008569,-56.38600000
-76.14008569,-56.38600000
-76.10008569,-54.62203000
-76.06008569,-52.85195000
-76.02008569,-51.08798000
-75.98008569,-47.56004000
-75.94008569,-47.56004000
-75.90008569,-45.79607000
-75.86008569,-44.03210000
-75.82008569,-40.50417000
-75.78008569,-40.50417000
-75.74008569,-36.97623000
-75.70008570,-35.21225000
-75.66008570,-33.44828000
-75.62008570,-31.68431000
-75.58008570,-29.92035000
-75.54008570,-28.15638000
-75.50008570,-26.39241000
-75.46008570,-24.62233000
-75.42008570,-22.85836000
-75.38008570,-21.09439000
-75.34008570,-19.33042000
-75.30008570,-17.56645000
-75.26008570,-15.80248000
-75.22008570,-12.27454000
-75.18008570,-12.27454000
-75.14008570,-10.51057000
-75.10008570,-6.98263500
-75.06008570,-5.21866500
-75.02008570,-5.21866500
-74.98008570,-3.45469500
-74.94008570,0.07324442
-74.90008570,1.83721400
-74.86008570,1.83721400
-74.82008570,5.36515400
-74.78008570,7.12912400
-74.74008570,8.89309300
-74.70008570,10.65706000
-74.66008570,12.42103000
-74.62008570,15.94897000
-74.58008570,15.94897000
-74.54008570,17.71294000
-74.50008570,21.24088000
-74.46008570,23.00485000
-74.42008570,23.00485000
-74.38008570,24.76882000
-74.34008570,28.29676000
-74.30008570,30.06684000
-74.26008570,30.06684000
-74.22008570,31.83080000
-74.18008570,35.35874000
-74.14008570,37.12271000
-74.10008570,37.12271000
-74.06008570,38.88668000
-74.02008571,42.41463000
-73.98008571,44.17860000
-73.94008571,45.94257000
-73.90008571,47.70654000
-73.86008571,49.47050000
-73.82008571,51.23447000
-73.78008571,52.99844000
-73.74008571,54.76241000
-73.70008571,56.52638000
-73.66008571,58.29646000
-73.62008571,58.29646000
-73.58008571,61.82440000
-73.54008571,63.58836000
-73.50008571,63.58836000
-73.46008571,67.11631000
-73.42008571,68.88028000
-73.38008571,70.64425000
-73.34008571,72.40822000
-73.30008571,72.40822000
-73.26008571,74.17219000
-73.22008571,77.70013000
-73.18008571,79.46410000
-73.14008571,79.46410000
-73.10008571,81.22807000
-73.06008571,82.99203000
-73.02008571,84.75600000
-72.98008571,86.52608000
-72.94008571,88.29005000
-72.90008571,90.05402000
-72.86008571,91.81799000
-72.82008571,93.58195000
-72.78008571,93.58195000
-72.74008571,93.58195000
-72.70008571,98.87386000
-72.66008571,100.63780000
-72.62008571,100.63780000
-72.58008571,102.40180000
-72.54008571,104.16580000
-72.50008571,105.92970000
-72.46008571,107.69370000
-72.42008571,107.69370000
-72.38008572,109.45770000
-72.34008572,111.22170000
-72.30008572,112.98560000
-72.26008572,114.75570000
-72.22008572,116.51970000
-72.18008572,116.51970000
-72.14008572,118.28360000
-72.10008572,120.04760000
-72.06008572,121.81160000
-72.02008572,121.81160000
-71.98008572,123.57550000
-71.94008572,127.10350000
-71.90008572,127.10350000
-71.86008572,128.86740000
-71.82008572,128.86740000
-71.78008572,130.63140000
-71.74008572,130.63140000
-71.70008572,134.15940000
-71.66008572,135.92330000
-71.62008572,135.92330000
-71.58008572,135.92330000
-71.54008572,137.68730000
-71.50008572,137.68730000
-71.46008572,141.21520000
-71.42008572,141.21520000
-71.38008572,142.98530000
-71.34008572,142.98530000
-71.30008572,144.74930000
-71.26008572,146.51330000
-71.22008572,146.51330000
-71.18008572,148.27720000
-71.14008572,150.04120000
-71.10008572,150.04120000
-71.06008572,151.80520000
-71.02008572,151.80520000
-70.98008572,153.56910000
-70.94008572,155.33310000
-70.90008572,155.33310000
-70.86008572,157.09710000
-70.82008572,157.09710000
-70.78008572,157.09710000
-70.74008573,157.09710000
-70.70008573,158.86110000
-70.66008573,160.62500000
-70.62008573,162.38900000
-70.58008573,162.38900000
-70.54008573,162.38900000
-70.50008573,164.15300000
-70.46008573,164.15300000
-70.42008573,165.91690000
-70.38008573,165.91690000
-70.34008573,167.68090000
-70.30008573,169.44490000
-70.26008573,169.44490000
-70.22008573,169.44490000
-70.18008573,169.44490000
-70.14008573,171.21490000
-70.10008573,171.21490000
-70.06008573,171.21490000
-70.02008573,172.97890000
-69.98008573,172.97890000
-69.94008573,172.97890000
-69.90008573,172.97890000
-69.86008573,174.74290000
-69.82008573,174.74290000
-69.78008573,174.74290000
-69.74008573,176.50690000
-69.70008573,176.50690000
-69.66008573,176.50690000
-69.62008573,176.50690000
-69.58008573,178.27080000
-69.54008573,178.27080000
-69.50008573,178.27080000
-69.46008573,178.27080000
-69.42008573,178.27080000
