Time,Channel B
(us),(mV)

-100.09913967,-6.98263500
-100.05913967,-5.21866500
-100.01913967,-3.45469500
-99.97913967,-1.69072500
-99.93913967,0.07324442
-99.89913967,1.83721400
-99.85913967,3.60118400
-99.81913967,7.12912400
-99.77913967,8.89309300
-99.73913967,8.89309300
-99.69913967,10.65706000
-99.65913967,14.18500000
-99.61913968,15.94897000
-99.57913968,15.94897000
-99.53913968,19.47691000
-99.49913968,21.24088000
-99.45913968,23.00485000
-99.41913968,24.76882000
-99.37913968,26.53279000
-99.33913968,28.29676000
-99.29913968,30.06684000
-99.25913968,31.83080000
-99.21913968,33.59477000
-99.17913968,35.35874000
-99.13913968,37.12271000
-99.09913968,38.88668000
-99.05913968,42.41463000
-99.01913968,42.41463000
-98.97913968,44.17860000
-98.93913968,45.94257000
-98.89913968,49.47050000
-98.85913968,49.47050000
-98.81913968,51.23447000
-98.77913968,52.99844000
-98.73913968,54.76241000
-98.69913968,58.29646000
-98.65913968,58.29646000
-98.61913968,60.06042000
-98.57913968,63.58836000
-98.53913968,63.58836000
-98.49913968,65.35233000
-98.45913968,68.88028000
-98.41913968,68.88028000
-98.37913968,70.64425000
-98.33913968,72.40822000
-98.29913968,74.17219000
-98.25913968,75.93616000
-98.21913968,77.70013000
-98.17913968,79.46410000
-98.13913968,81.22807000
-98.09913968,81.22807000
-98.05913968,84.75600000
-98.01913968,86.52608000
-97.97913969,86.52608000
-97.93913969,88.29005000
-97.89913969,90.05402000
-97.85913969,91.81799000
-97.81913969,93.58195000
-97.77913969,95.34592000
-97.73913969,97.10989000
-97.69913969,98.87386000
-97.65913969,100.63780000
-97.61913969,100.63780000
-97.57913969,104.16580000
-97.53913969,105.92970000
-97.49913969,105.92970000
-97.45913969,107.69370000
-97.41913969,109.45770000
-97.37913969,109.45770000
-97.33913969,111.22170000
-97.29913969,112.98560000
-97.25913969,114.75570000
-97.21913969,114.75570000
-97.17913969,116.51970000
-97.13913969,120.04760000
-97.09913969,120.04760000
-97.05913969,121.81160000
-97.01913969,121.81160000
-96.97913969,123.57550000
-96.93913969,127.10350000
-96.89913969,127.10350000
-96.85913969,128.86740000
-96.81913969,128.86740000
-96.77913969,130.63140000
-96.73913969,132.39540000
-96.69913969,134.15940000
-96.65913969,135.92330000
-96.61913969,135.92330000
-96.57913969,137.68730000
-96.53913969,137.68730000
-96.49913969,139.45130000
-96.45913969,141.21520000
-96.41913969,142.98530000
-96.37913969,142.98530000
-96.33913970,144.74930000
-96.29913970,144.74930000
-96.25913970,144.74930000
-96.21913970,148.27720000
-96.17913970,148.27720000
-96.13913970,148.27720000
-96.09913970,150.04120000
-96.05913970,150.04120000
-96.01913970,151.80520000
-95.97913970,153.56910000
-95.93913970,153.56910000
-95.89913970,155.33310000
-95.85913970,157.09710000
-95.81913970,157.09710000
-95.77913970,157.09710000
-95.73913970,158.86110000
-95.69913970,160.62500000
-95.65913970,160.62500000
-95.61913970,160.62500000
-95.57913970,162.38900000
-95.53913970,164.15300000
-95.49913970,164.15300000
-95.45913970,164.15300000
-95.41913970,164.15300000
-95.37913970,165.91690000
-95.33913970,165.91690000
-95.29913970,165.91690000
-95.25913970,167.68090000
-95.21913970,169.44490000
-95.17913970,169.44490000
-95.13913970,171.21490000
-95.09913970,171.21490000
-95.05913970,171.21490000
-95.01913970,171.21490000
-94.97913970,171.21490000
-94.93913970,172.97890000
-94.89913970,172.97890000
-94.85913970,172.97890000
-94.81913970,174.74290000
-94.77913970,174.74290000
-94.73913970,176.50690000
-94.69913971,174.74290000
-94.65913971,176.50690000
-94.61913971,176.50690000
-94.57913971,176.50690000
-94.53913971,176.50690000
-94.49913971,176.50690000
-94.45913971,178.27080000
-94.41913971,178.27080000
-94.37913971,178.27080000
-94.33913971,178.27080000
-94.29913971,178.27080000
-94.25913971,178.27080000
-94.21913971,178.27080000
-94.17913971,178.27080000
-94.13913971,180.03480000
-94.09913971,178.27080000
-94.05913971,178.27080000
-94.01913971,178.27080000
-93.97913971,180.03480000
-93.93913971,180.03480000
-93.89913971,180.03480000
-93.85913971,180.03480000
-93.81913971,180.03480000
-93.77913971,180.03480000
-93.73913971,178.27080000
-93.69913971,178.27080000
-93.65913971,178.27080000
-93.61913971,180.03480000
-93.57913971,178.27080000
-93.53913971,178.27080000
-93.49913971,180.03480000
-93.45913971,178.27080000
-93.41913971,178.27080000
-93.37913971,178.27080000
-93.33913971,178.27080000
-93.29913971,178.27080000
-93.25913971,178.27080000
-93.21913971,178.27080000
-93.17913971,178.27080000
-93.13913971,178.27080000
-93.09913971,176.50690000
-93.05913972,176.50690000
-93.01913972,176.50690000
-92.97913972,176.50690000
-92.93913972,176.50690000
-92.89913972,176.50690000
-92.85913972,174.74290000
-92.81913972,174.74290000
-92.77913972,174.74290000
-92.73913972,172.97890000
-92.69913972,171.21490000
-92.65913972,171.21490000
-92.61913972,171.21490000
-92.57913972,171.21490000
-92.53913972,171.21490000
-92.49913972,169.44490000
-92.45913972,169.44490000
-92.41913972,169.44490000
-92.37913972,167.68090000
-92.33913972,165.91690000
-92.29913972,167.68090000
-92.25913972,165.91690000
-92.21913972,164.15300000
-92.17913972,164.15300000
-92.13913972,164.15300000
-92.09913972,164.15300000
-92.05913972,162.38900000
-92.01913972,162.38900000
-91.97913972,160.62500000
-91.93913972,160.62500000
-91.89913972,157.09710000
-91.85913972,157.09710000
-91.81913972,157.09710000
-91.77913972,157.09710000
-91.73913972,155.33310000
-91.69913972,153.56910000
-91.65913972,153.56910000
-91.61913972,151.80520000
-91.57913972,150.04120000
-91.53913972,150.04120000
-91.49913972,150.04120000
-91.45913972,148.27720000
-91.41913972,146.51330000
-91.37913973,146.51330000
-91.33913973,144.74930000
-91.29913973,142.98530000
-91.25913973,142.98530000
-91.21913973,142.98530000
-91.17913973,141.21520000
-91.13913973,139.45130000
-91.09913973,137.68730000
-91.05913973,135.92330000
-91.01913973,135.92330000
-90.97913973,135.92330000
-90.93913973,134.15940000
-90.89913973,132.39540000
-90.85913973,130.63140000
-90.81913973,128.86740000
-90.77913973,128.86740000
-90.73913973,127.10350000
-90.69913973,127.10350000
-90.65913973,123.57550000
-90.61913973,123.57550000
-90.57913973,121.81160000
-90.53913973,120.04760000
-90.49913973,120.04760000
-90.45913973,118.28360000
-90.41913973,114.75570000
-90.37913973,114.75570000
-90.33913973,112.98560000
-90.29913973,112.98560000
-90.25913973,109.45770000
-90.21913973,107.69370000
-90.17913973,107.69370000
-90.13913973,105.92970000
-90.09913973,105.92970000
-90.05913973,102.40180000
-90.01913973,100.63780000
-89.97913973,100.63780000
-89.93913973,98.87386000
-89.89913973,97.10989000
-89.85913973,95.34592000
-89.81913973,93.58195000
-89.77913973,91.81799000
-89.73913974,91.81799000
-89.69913974,88.29005000
-89.65913974,86.52608000
-89.61913974,86.52608000
-89.57913974,84.75600000
-89.53913974,81.22807000
-89.49913974,79.46410000
-89.45913974,79.46410000
-89.41913974,79.46410000
-89.37913974,77.70013000
-89.33913974,74.17219000
-89.29913974,72.40822000
-89.25913974,70.64425000
-89.21913974,70.64425000
-89.17913974,67.11631000
-89.13913974,65.35233000
-89.09913974,65.35233000
-89.05913974,63.58836000
-89.01913974,60.06042000
-88.97913974,58.29646000
-88.93913974,58.29646000
-88.89913974,54.76241000
-88.85913974,52.99844000
-88.81913974,51.23447000
-88.77913974,49.47050000
-88.73913974,49.47050000
-88.69913974,45.94257000
-88.65913974,44.17860000
-88.61913974,42.41463000
-88.57913974,42.41463000
-88.53913974,38.88668000
-88.49913974,37.12271000
-88.45913974,35.35874000
-88.41913974,35.35874000
-88.37913974,31.83080000
-88.33913974,30.06684000
-88.29913974,28.29676000
-88.25913974,26.53279000
-88.21913974,23.00485000
-88.17913974,23.00485000
-88.13913974,21.24088000
-88.09913975,19.47691000
-88.05913975,15.94897000
-88.01913975,15.94897000
-87.97913975,14.18500000
-87.93913975,10.65706000
-87.89913975,8.89309300
-87.85913975,8.89309300
-87.81913975,7.12912400
-87.77913975,3.60118400
-87.73913975,1.83721400
-87.69913975,0.07324442
-87.65913975,-1.69072500
-87.61913975,-3.45469500
-87.57913975,-5.21866500
-87.53913975,-5.21866500
-87.49913975,-8.74660500
-87.45913975,-10.51057000
-87.41913975,-12.27454000
-87.37913975,-14.03851000
-87.33913975,-17.56645000
-87.29913975,-19.33042000
-87.25913975,-19.33042000
-87.21913975,-21.09439000
-87.17913975,-24.62233000
-87.13913975,-24.62233000
-87.09913975,-26.39241000
-87.05913975,-28.15638000
-87.01913975,-31.68431000
-86.97913975,-33.44828000
-86.93913975,-35.21225000
-86.89913975,-36.97623000
-86.85913975,-38.74020000
-86.81913975,-40.50417000
-86.77913975,-42.26814000
-86.73913975,-45.79607000
-86.69913975,-45.79607000
-86.65913975,-47.56004000
-86.61913975,-49.32401000
-86.57913975,-51.08798000
-86.53913975,-52.85195000
-86.49913975,-54.62203000
-86.45913976,-56.38600000
-86.41913976,-58.14997000
-86.37913976,-61.67791000
-86.33913976,-61.67791000
-86.29913976,-63.44188000
-86.25913976,-66.96982000
-86.21913976,-66.96982000
-86.17913976,-68.73379000
-86.13913976,-70.49776000
-86.09913976,-72.26173000
-86.05913976,-74.02570000
-86.01913976,-75.78967000
-85.97913976,-77.55363000
-85.93913976,-79.31760000
-85.89913976,-81.08157000
-85.85913976,-82.85165000
-85.81913976,-84.61562000
-85.77913976,-84.61562000
-85.73913976,-88.14356000
-85.69913976,-89.90753000
-85.65913976,-89.90753000
-85.61913976,-91.67150000
-85.57913976,-93.43547000
-85.53913976,-96.96341000
-85.49913976,-96.96341000
-85.45913976,-98.72738000
-85.41913976,-102.25530000
-85.37913976,-104.01930000
-85.33913976,-104.01930000
-85.29913976,-105.78330000
-85.25913976,-105.78330000
-85.21913976,-109.31120000
-85.17913976,-111.08130000
-85.13913976,-111.08130000
-85.09913976,-112.84520000
-85.05913976,-116.37320000
-85.01913976,-118.13720000
-84.97913976,-118.13720000
-84.93913976,-119.90110000
-84.89913976,-119.90110000
-84.85913976,-123.42910000
-84.81913977,-125.19300000
-84.77913977,-125.19300000
-84.73913977,-126.95700000
-84.69913977,-128.72100000
-84.65913977,-130.48490000
-84.61913977,-132.24890000
-84.57913977,-132.24890000
-84.53913977,-134.01290000
-84.49913977,-135.77680000
-84.45913977,-137.54080000
-84.41913977,-139.31090000
-84.37913977,-139.31090000
-84.33913977,-139.31090000
-84.29913977,-141.07490000
-84.25913977,-142.83880000
-84.21913977,-144.60280000
-84.17913977,-146.36680000
-84.13913977,-146.36680000
-84.09913977,-146.36680000
-84.05913977,-148.13070000
-84.01913977,-149.89470000
-83.97913977,-151.65870000
-83.93913977,-153.42260000
-83.89913977,-153.42260000
-83.85913977,-155.18660000
-83.81913977,-155.18660000
-83.77913977,-155.18660000
-83.73913977,-158.71460000
-83.69913977,-160.47850000
-83.65913977,-160.47850000
-83.61913977,-160.47850000
-83.57913977,-162.24250000
-83.53913977,-162.24250000
-83.49913977,-165.77040000
-83.45913977,-164.00650000
-83.41913977,-165.77040000
-83.37913977,-167.54050000
-83.33913977,-167.54050000
-83.29913977,-167.54050000
-83.25913977,-169.30450000
-83.21913977,-169.30450000
-83.17913978,-172.83240000
-83.13913978,-172.83240000
-83.09913978,-172.83240000
-83.05913978,-174.59640000
-83.01913978,-174.59640000
-82.97913978,-174.59640000
-82.93913978,-176.36040000
-82.89913978,-176.36040000
-82.85913978,-176.36040000
-82.81913978,-178.12430000
-82.77913978,-178.12430000
-82.73913978,-178.12430000
-82.69913978,-181.65230000
-82.65913978,-181.65230000
-82.61913978,-181.65230000
-82.57913978,-181.65230000
-82.53913978,-181.65230000
-82.49913978,-183.41620000
-82.45913978,-183.41620000
-82.41913978,-183.41620000
-82.37913978,-185.18020000
-82.33913978,-186.94420000
-82.29913978,-185.18020000
-82.25913978,-186.94420000
-82.21913978,-186.94420000
-82.17913978,-186.94420000
-82.13913978,-186.94420000
-82.09913978,-188.70810000
-82.05913978,-188.70810000
-82.01913978,-188.70810000
-81.97913978,-188.70810000
-81.93913978,-188.70810000
-81.89913978,-188.70810000
-81.85913978,-190.47210000
-81.81913978,-188.70810000
-81.77913978,-190.47210000
-81.73913978,-190.47210000
-81.69913978,-190.47210000
-81.65913978,-190.47210000
-81.61913978,-190.47210000
-81.57913978,-190.47210000
-81.53913979,-190.47210000
-81.49913979,-190.47210000
-81.45913979,-190.47210000
-81.41913979,-190.47210000
-81.37913979,-190.47210000
-81.33913979,-190.47210000
-81.29913979,-190.47210000
-81.25913979,-190.47210000
-81.21913979,-192.23610000
-81.17913979,-190.47210000
-81.13913979,-190.47210000
-81.09913979,-190.47210000
-81.05913979,-190.47210000
-81.01913979,-190.47210000
-80.97913979,-190.47210000
-80.93913979,-190.47210000
-80.89913979,-190.47210000
-80.85913979,-190.47210000
-80.81913979,-190.47210000
-80.77913979,-188.70810000
-80.73913979,-188.70810000
-80.69913979,-190.47210000
-80.65913979,-188.70810000
-80.61913979,-188.70810000
-80.57913979,-188.70810000
-80.53913979,-188.70810000
-80.49913979,-188.70810000
-80.45913979,-186.94420000
-80.41913979,-186.94420000
-80.37913979,-186.94420000
-80.33913979,-186.94420000
-80.29913979,-185.18020000
-80.25913979,-183.41620000
-80.21913979,-183.41620000
-80.17913979,-183.41620000
-80.13913979,-183.41620000
-80.09913979,-183.41620000
-80.05913979,-181.65230000
-80.01913979,-181.65230000
-79.97913979,-181.65230000
-79.93913979,-179.88830000
-79.89913980,-179.88830000
-79.85913980,-179.88830000
-79.81913980,-178.12430000
-79.77913980,-176.36040000
-79.73913980,-176.36040000
-79.69913980,-176.36040000
-79.65913980,-174.59640000
-79.61913980,-174.59640000
-79.57913980,-174.59640000
-79.53913980,-172.83240000
-79.49913980,-172.83240000
-79.45913980,-172.83240000
-79.41913980,-169.30450000
-79.37913980,-169.30450000
-79.33913980,-169.30450000
-79.29913980,-167.54050000
-79.25913980,-167.54050000
-79.21913980,-167.54050000
-79.17913980,-165.77040000
-79.13913980,-164.00650000
-79.09913980,-164.00650000
-79.05913980,-162.24250000
-79.01913980,-160.47850000
-78.97913980,-160.47850000
-78.93913980,-160.47850000
-78.89913980,-158.71460000
-78.85913980,-158.71460000
-78.81913980,-155.18660000
-78.77913980,-155.18660000
-78.73913980,-153.42260000
-78.69913980,-153.42260000
-78.65913980,-151.65870000
-78.61913980,-149.89470000
-78.57913980,-149.89470000
-78.53913980,-146.36680000
-78.49913980,-146.36680000
-78.45913980,-146.36680000
-78.41913980,-144.60280000
-78.37913980,-144.60280000
-78.33913980,-141.07490000
-78.29913980,-141.07490000
-78.25913980,-139.31090000
-78.21913981,-139.31090000
-78.17913981,-137.54080000
-78.13913981,-135.77680000
-78.09913981,-134.01290000
-78.05913981,-132.24890000
-78.01913981,-132.24890000
-77.97913981,-130.48490000
-77.93913981,-128.72100000
-77.89913981,-126.95700000
-77.85913981,-125.19300000
-77.81913981,-125.19300000
-77.77913981,-123.42910000
-77.73913981,-121.66510000
-77.69913981,-119.90110000
-77.65913981,-118.13720000
-77.61913981,-116.37320000
-77.57913981,-114.60920000
-77.53913981,-112.84520000
-77.49913981,-111.08130000
-77.45913981,-111.08130000
-77.41913981,-109.31120000
-77.37913981,-107.54720000
-77.33913981,-105.78330000
-77.29913981,-104.01930000
-77.25913981,-104.01930000
-77.21913981,-102.25530000
-77.17913981,-98.72738000
-77.13913981,-98.72738000
-77.09913981,-96.96341000
-77.05913981,-95.19944000
-77.01913981,-93.43547000
-76.97913981,-91.67150000
-76.93913981,-89.90753000
-76.89913981,-88.14356000
-76.85913981,-86.37959000
-76.81913981,-84.61562000
-76.77913981,-82.85165000
-76.73913981,-81.08157000
-76.69913981,-79.31760000
-76.65913981,-77.55363000
-76.61913981,-75.78967000
-76.57913982,-75.78967000
-76.53913982,-74.02570000
-76.49913982,-70.49776000
-76.45913982,-68.73379000
-76.41913982,-68.73379000
-76.37913982,-65.20585000
-76.33913982,-63.44188000
-76.29913982,-61.67791000
-76.25913982,-61.67791000
-76.21913982,-59.91394000
-76.17913982,-56.38600000
-76.13913982,-54.62203000
-76.09913982,-54.62203000
-76.05913982,-51.08798000
-76.01913982,-49.32401000
-75.97913982,-47.56004000
-75.93913982,-47.56004000
-75.89913982,-44.03210000
-75.85913982,-42.26814000
-75.81913982,-40.50417000
-75.77913982,-38.74020000
-75.73913982,-35.21225000
-75.69913982,-33.44828000
-75.65913982,-35.21225000
-75.61913982,-31.68431000
-75.57913982,-28.15638000
-75.53913982,-28.15638000
-75.49913982,-26.39241000
-75.45913982,-24.62233000
-75.41913982,-21.09439000
-75.37913982,-19.33042000
-75.33913982,-19.33042000
-75.29913982,-17.56645000
-75.25913982,-14.03851000
-75.21913982,-12.27454000
-75.17913982,-12.27454000
-75.13913982,-8.74660500
-75.09913982,-6.98263500
-75.05913982,-5.21866500
-75.01913982,-3.45469500
-74.97913982,-1.69072500
-74.93913983,0.07324442
-74.89913983,1.83721400
-74.85913983,3.60118400
-74.81913983,5.36515400
-74.77913983,8.89309300
-74.73913983,8.89309300
-74.69913983,10.65706000
-74.65913983,14.18500000
-74.61913983,15.94897000
-74.57913983,17.71294000
-74.53913983,19.47691000
-74.49913983,21.24088000
-74.45913983,23.00485000
-74.41913983,24.76882000
-74.37913983,26.53279000
-74.33913983,28.29676000
-74.29913983,30.06684000
-74.25913983,31.83080000
-74.21913983,33.59477000
-74.17913983,35.35874000
-74.13913983,37.12271000
-74.09913983,38.88668000
-74.05913983,40.65065000
-74.01913983,42.41463000
-73.97913983,44.17860000
-73.93913983,45.94257000
-73.89913983,49.47050000
-73.85913983,51.23447000
-73.81913983,51.23447000
-73.77913983,52.99844000
-73.73913983,56.52638000
-73.69913983,56.52638000
-73.65913983,58.29646000
-73.61913983,60.06042000
-73.57913983,61.82440000
-73.53913983,63.58836000
-73.49913983,65.35233000
-73.45913983,67.11631000
-73.41913983,68.88028000
-73.37913983,72.40822000
-73.33913983,72.40822000
-73.29913984,74.17219000
-73.25913984,75.93616000
-73.21913984,79.46410000
-73.17913984,79.46410000
-73.13913984,81.22807000
-73.09913984,82.99203000
-73.05913984,84.75600000
-73.01913984,86.52608000
-72.97913984,86.52608000
-72.93913984,88.29005000
-72.89913984,90.05402000
-72.85913984,91.81799000
-72.81913984,93.58195000
-72.77913984,95.34592000
-72.73913984,95.34592000
-72.69913984,98.87386000
-72.65913984,100.63780000
-72.61913984,100.63780000
-72.57913984,102.40180000
-72.53913984,105.92970000
-72.49913984,105.92970000
-72.45913984,107.69370000
-72.41913984,109.45770000
-72.37913984,109.45770000
-72.33913984,112.98560000
-72.29913984,112.98560000
-72.25913984,114.75570000
-72.21913984,116.51970000
-72.17913984,118.28360000
-72.13913984,118.28360000
-72.09913984,120.04760000
-72.05913984,121.81160000
-72.01913984,121.81160000
-71.97913984,123.57550000
-71.93913984,127.10350000
-71.89913984,128.86740000
-71.85913984,128.86740000
-71.81913984,128.86740000
-71.77913984,130.63140000
-71.73913984,132.39540000
-71.69913984,134.15940000
-71.65913985,134.15940000
-71.61913985,135.92330000
-71.57913985,135.92330000
-71.53913985,137.68730000
-71.49913985,139.45130000
-71.45913985,141.21520000
-71.41913985,142.98530000
-71.37913985,142.98530000
-71.33913985,142.98530000
-71.29913985,144.74930000
-71.25913985,146.51330000
-71.21913985,148.27720000
-71.17913985,148.27720000
-71.13913985,150.04120000
-71.09913985,150.04120000
-71.05913985,151.80520000
-71.01913985,151.80520000
-70.97913985,153.56910000
-70.93913985,155.33310000
-70.89913985,155.33310000
-70.85913985,157.09710000
-70.81913985,157.09710000
-70.77913985,157.09710000
-70.73913985,157.09710000
-70.69913985,158.86110000
-70.65913985,160.62500000
-70.61913985,162.38900000
-70.57913985,162.38900000
-70.53913985,164.15300000
-70.49913985,164.15300000
-70.45913985,164.15300000
-70.41913985,164.15300000
-70.37913985,165.91690000
-70.33913985,165.91690000
-70.29913985,167.68090000
-70.25913985,169.44490000
-70.21913985,169.44490000
-70.17913985,169.44490000
-70.13913985,171.21490000
-70.09913985,171.21490000
-70.05913985,171.21490000
-70.01913986,171.21490000
-69.97913986,171.21490000
-69.93913986,172.97890000
-69.89913986,172.97890000
-69.85913986,174.74290000
-69.81913986,172.97890000
-69.77913986,174.74290000
-69.73913986,176.50690000
-69.69913986,174.74290000
-69.65913986,176.50690000
-69.61913986,176.50690000
-69.57913986,176.50690000
-69.53913986,176.50690000
-69.49913986,178.27080000
-69.45913986,176.50690000
-69.41913986,178.27080000
